INITIAL
* 1:26pm Jan 19, 2022
* ai vs chan_ablation_over
* 1 2 2 2 2 2 5 1 2 2 2 2 2 5
* X X X X
* X X X X
* X X X X
* X X X X
* X X X X
* X X X X
* X X X X
* X X X X
* first 1
* time 900
* 1. d1(c) d2(M)
* 2. c1(p) b7(N)
* 3. c2(R) d2-d1
* 4. d3(P) d4(n)
* 5. c4(P) c3(g)
* 6. c3-c2 b6(n)
* 7. c2-d2 d1-c1
* 8. d2-c2 c1-d1
* 9. c2-c1 d1-d2
* 10. c1-c2 d2-d1
* 11. c2-d2 d1-c1
* 12. d2-d1 c1-c2
* 13. d1-d2 c2-c1
* 14. d2-d1 c1-c2
* 15. d1-d2 c2-c1
* 16. d2-d1 a1(C)
* 17. a2(P) c4-c3
* 18. d5(c) b3(R)
* 19. d7(m) a3(p)
* 20. d5-d3 c3-c2
* 21. d6(N) b3-c3
* 22. d3-d6 c3-c4
* 23. b6-b7 c4-d4
* 24. a6(p) a2-a3
* 25. a5(p) c2-c3
* 26. b5(m) c3-c4
* 27. a6-b6 b4(r)
* 28. b4-c4 d4-d5
* 29. b5-b4 d5-d6
* 30. c6(P) a8(g)
* 31. d7-d6 c6-b6
* 32. c4-c3 c8(K)
* 33. c7(C) a4(r)
* 34. b7-c7 c8-c7
* 35. b1(p) c1-b1
* 36. d1-d2 a3-b3
* 37. d8(G) c7-c6
* 38. b8(G) b8-a8
* 39. a7(M) a7-a6
* 40. d6-d5 a6-a5
* 41. a4-a3 c6-d6
* 42. c5(P) d6-d5
* 43. b4-b3 d5-d4
* 44. b2(k) d4-d3
* 45. d2-c2 d3-d2
* 46. a3-a2 a8-b8
* 47. b3-b4 c5-d5
* 48. c3-b3 d2-c2
* 49. b2-c2 d8-c8
* 50. c2-b2 b1-c1
* 51. b2-b1 c1-c2
* 52. b1-a1 c2-c3
* 53. a2-b2 c8-c7
* 54. b3-a3 c7-c6
* 55. b2-b3 c6-c5
* 56. a1-a2 c5-b5
* 57. a2-a1 b5-b4
* 58. b3-b2 c3-c2
* 59. a1-a2 a5-a4
* 60. b2-b1 c2-c1
* 61. b1-a1 c1-b1
* 62. a3-b3 b4-b3
* 63. a2-b2 b1-a1
* 64. b2-b3 b6-b5
* 65. b3-a3 b5-b4
* 66. a3-a2 b4-b3
* 67. a2-a1 b3-b2
* 68. a1-a2 b2-a2
* NoMove chan_ablation_over Wins 0.000000,1.000000
* Comment 0 0
0. 1642569982118
1. 1642569982118
2. 1642569990084
3. 1642570001598
4. 1642570001755
5. 1642570012124
6. 1642570018526
7. 1642570028855
8. 1642570042179
9. 1642570051438
10. 1642570052748
11. 1642570061415
12. 1642570065214
13. 1642570070632
14. 1642570075041
15. 1642570080694
16. 1642570086512
17. 1642570091972
18. 1642570096674
19. 1642570102091
20. 1642570107601
21. 1642570113102
22. 1642570117770
23. 1642570123380
24. 1642570129734
25. 1642570135302
26. 1642570141363
27. 1642570147014
28. 1642570153285
29. 1642570158996
30. 1642570166650
31. 1642570172220
32. 1642570178532
33. 1642570183834
34. 1642570193710
35. 1642570198469
36. 1642570209882
37. 1642570212243
38. 1642570231427
39. 1642570233322
40. 1642570234382
41. 1642570236135
42. 1642570250502
43. 1642570251713
44. 1642570258826
45. 1642570260022
46. 1642570264486
47. 1642570265538
48. 1642570268286
49. 1642570269094
50. 1642570273852
51. 1642570274646
52. 1642570280264
53. 1642570280765
54. 1642570283914
55. 1642570284271
56. 1642570294289
57. 1642570294734
58. 1642570304207
59. 1642570304608
60. 1642570319478
61. 1642570319685
62. 1642570337566
63. 1642570337858
64. 1642570355298
65. 1642570355499
66. 1642570393058
67. 1642570393167
68. 1642570398374
69. 1642570398518
70. 1642570400228
71. 1642570400331
72. 1642570408438
73. 1642570408545
74. 1642570411399
75. 1642570411546
76. 1642570416659
77. 1642570416764
78. 1642570423966
79. 1642570424076
80. 1642570430334
81. 1642570430478
82. 1642570433390
83. 1642570433493
84. 1642570442146
85. 1642570442258
86. 1642570448968
87. 1642570449114
88. 1642570454228
89. 1642570454330
90. 1642570457526
91. 1642570457636
92. 1642570460489
93. 1642570460634
94. 1642570465298
95. 1642570465400
96. 1642570468146
97. 1642570468255
98. 1642570473713
99. 1642570473858
100. 1642570480629
101. 1642570480778
102. 1642570486182
103. 1642570486288
104. 1642570494053
105. 1642570494246
106. 1642570505924
107. 1642570506073
108. 1642570508822
109. 1642570508928
110. 1642570514089
111. 1642570514282
112. 1642570518547
113. 1642570518696
114. 1642570523046
115. 1642570523157
116. 1642570533427
117. 1642570533618
118. 1642570542944
119. 1642570543092
120. 1642570548546
121. 1642570548652
122. 1642570553112
123. 1642570553302
124. 1642570557871
125. 1642570558019
126. 1642570560470
127. 1642570560573
128. 1642570570594
129. 1642570570782
130. 1642570570945
131. 1642570571093
132. 1642570571290
133. 1642570571394
134. 1642570571547
135. 1642570571738
136. 1642570571848

# 17 32 52 82 102 132 152 182 202 232 252 282 302 332 352 382 402 432 452 482 502 532 552 582 602 632 652 682 702 732 752 782 802 832 852 882 902 932 952 982 1002 1032 1052 1082 1102 1132 1152 1182 1202 1232 1252 1282 1302 1332 1352 1382 1402 1432 1452 1482 1502 1532 1552 1582 1602 1632 1652 1682 1702 1732 1752 1782 1802 1832 1852 1882 1902 1932 1952 1982 2002 2032 2052 2082 2102 2132 2152 2182 2202 2232 2252 2282 2302 2332 2352 2382 2402 2432 2452 2482 2502 2532 2552 2582 2602 2632 2652 2682 2702 2732 2752 2782 2802 2832 2852 2882 2902 2932 2952 2982 3002 3032 3052 3082 3102 3132 3152 3182 3202 3232 3252 3282 3302 3332 3352 3382 3402 #
=1 MyAI
=2 1.0.0
------------Red-------------
<8>    X    X    X    X 
<7>    X    X    X    X 
<6>    X    X    X    X 
<5>    X    X    X    X 
<4>    X    X    X    X 
<3>    X    X    X    X 
<2>    X    X    X    X 
<1>    X    X    X    X 

      <a>  <b>  <c>  <d> 

=7
=15
=14
# call flip(): flip(31,31) = 14
------------Red-------------
<8>    X    X    X    X 
<7>    X    X    X    X 
<6>    X    X    X    X 
<5>    X    X    X    X 
<4>    X    X    X    X 
<3>    X    X    X    X 
<2>    X    X    X    X 
<1>    X    X    X    c 

      <a>  <b>  <c>  <d> 

=11
=16
My result: 
--------------------------
NegaScout: 422.879151 (node: 5833257)
(27) -> (27)
< X > -> < X >
move:d2-d2
--------------------------
------------Red-------------
<8>    X    X    X    X 
<7>    X    X    X    X 
<6>    X    X    X    X 
<5>    X    X    X    X 
<4>    X    X    X    X 
<3>    X    X    X    X 
<2>    X    X    X    X 
<1>    X    X    X    c 

      <a>  <b>  <c>  <d> 

=12 d2 d2
# call flip(): flip(27,27) = 3
------------Red-------------
<8>    X    X    X    X 
<7>    X    X    X    X 
<6>    X    X    X    X 
<5>    X    X    X    X 
<4>    X    X    X    X 
<3>    X    X    X    X 
<2>    X    X    X    M 
<1>    X    X    X    c 

      <a>  <b>  <c>  <d> 

=11
=16
# call flip(): flip(30,30) = 15
------------Red-------------
<8>    X    X    X    X 
<7>    X    X    X    X 
<6>    X    X    X    X 
<5>    X    X    X    X 
<4>    X    X    X    X 
<3>    X    X    X    X 
<2>    X    X    X    M 
<1>    X    X    p    c 

      <a>  <b>  <c>  <d> 

=11
=16
My result: 
--------------------------
NegaScout: 3322.155172 (node: 3359)
(5) -> (5)
< X > -> < X >
move:b7-b7
--------------------------
------------Red-------------
<8>    X    X    X    X 
<7>    X    X    X    X 
<6>    X    X    X    X 
<5>    X    X    X    X 
<4>    X    X    X    X 
<3>    X    X    X    X 
<2>    X    X    X    M 
<1>    X    X    p    c 

      <a>  <b>  <c>  <d> 

=12 b7 b7
# call flip(): flip(5,5) = 5
------------Red-------------
<8>    X    X    X    X 
<7>    X    N    X    X 
<6>    X    X    X    X 
<5>    X    X    X    X 
<4>    X    X    X    X 
<3>    X    X    X    X 
<2>    X    X    X    M 
<1>    X    X    p    c 

      <a>  <b>  <c>  <d> 

=11
=16
# call flip(): flip(26,26) = 4
------------Red-------------
<8>    X    X    X    X 
<7>    X    N    X    X 
<6>    X    X    X    X 
<5>    X    X    X    X 
<4>    X    X    X    X 
<3>    X    X    X    X 
<2>    X    X    R    M 
<1>    X    X    p    c 

      <a>  <b>  <c>  <d> 

=11
=16
My result: 
--------------------------
NegaScout: 3322.500000 (node: 5408835)
(27) -> (31)
< M > -> < c >
move:d2-d1
--------------------------
------------Red-------------
<8>    X    X    X    X 
<7>    X    N    X    X 
<6>    X    X    X    X 
<5>    X    X    X    X 
<4>    X    X    X    X 
<3>    X    X    X    X 
<2>    X    X    R    M 
<1>    X    X    p    c 

      <a>  <b>  <c>  <d> 

=12 d2 d1
# call move(): move : 27-31 
------------Red-------------
<8>    X    X    X    X 
<7>    X    N    X    X 
<6>    X    X    X    X 
<5>    X    X    X    X 
<4>    X    X    X    X 
<3>    X    X    X    X 
<2>    X    X    R    - 
<1>    X    X    p    M 

      <a>  <b>  <c>  <d> 

=10
=16
# call flip(): flip(23,23) = 7
------------Red-------------
<8>    X    X    X    X 
<7>    X    N    X    X 
<6>    X    X    X    X 
<5>    X    X    X    X 
<4>    X    X    X    X 
<3>    X    X    X    P 
<2>    X    X    R    - 
<1>    X    X    p    M 

      <a>  <b>  <c>  <d> 

=11
=16
My result: 
--------------------------
NegaScout: 3613.384462 (node: 11329405)
(19) -> (19)
< X > -> < X >
move:d4-d4
--------------------------
------------Red-------------
<8>    X    X    X    X 
<7>    X    N    X    X 
<6>    X    X    X    X 
<5>    X    X    X    X 
<4>    X    X    X    X 
<3>    X    X    X    P 
<2>    X    X    R    - 
<1>    X    X    p    M 

      <a>  <b>  <c>  <d> 

=12 d4 d4
# call flip(): flip(19,19) = 13
------------Red-------------
<8>    X    X    X    X 
<7>    X    N    X    X 
<6>    X    X    X    X 
<5>    X    X    X    X 
<4>    X    X    X    n 
<3>    X    X    X    P 
<2>    X    X    R    - 
<1>    X    X    p    M 

      <a>  <b>  <c>  <d> 

=11
=16
# call flip(): flip(18,18) = 7
------------Red-------------
<8>    X    X    X    X 
<7>    X    N    X    X 
<6>    X    X    X    X 
<5>    X    X    X    X 
<4>    X    X    P    n 
<3>    X    X    X    P 
<2>    X    X    R    - 
<1>    X    X    p    M 

      <a>  <b>  <c>  <d> 

=11
=16
My result: 
--------------------------
NegaScout: 3487.541250 (node: 1148839)
(22) -> (22)
< X > -> < X >
move:c3-c3
--------------------------
------------Red-------------
<8>    X    X    X    X 
<7>    X    N    X    X 
<6>    X    X    X    X 
<5>    X    X    X    X 
<4>    X    X    P    n 
<3>    X    X    X    P 
<2>    X    X    R    - 
<1>    X    X    p    M 

      <a>  <b>  <c>  <d> 

=12 c3 c3
# call flip(): flip(22,22) = 10
------------Red-------------
<8>    X    X    X    X 
<7>    X    N    X    X 
<6>    X    X    X    X 
<5>    X    X    X    X 
<4>    X    X    P    n 
<3>    X    X    g    P 
<2>    X    X    R    - 
<1>    X    X    p    M 

      <a>  <b>  <c>  <d> 

=11
=16
# call move(): move : 22-26 
------------Red-------------
<8>    X    X    X    X 
<7>    X    N    X    X 
<6>    X    X    X    X 
<5>    X    X    X    X 
<4>    X    X    P    n 
<3>    X    X    -    P 
<2>    X    X    g    - 
<1>    X    X    p    M 

      <a>  <b>  <c>  <d> 

=10
=16
My result: 
--------------------------
NegaScout: 2126.978261 (node: 3220179)
(9) -> (9)
< X > -> < X >
move:b6-b6
--------------------------
------------Red-------------
<8>    X    X    X    X 
<7>    X    N    X    X 
<6>    X    X    X    X 
<5>    X    X    X    X 
<4>    X    X    P    n 
<3>    X    X    -    P 
<2>    X    X    g    - 
<1>    X    X    p    M 

      <a>  <b>  <c>  <d> 

=12 b6 b6
# call flip(): flip(9,9) = 13
------------Red-------------
<8>    X    X    X    X 
<7>    X    N    X    X 
<6>    X    n    X    X 
<5>    X    X    X    X 
<4>    X    X    P    n 
<3>    X    X    -    P 
<2>    X    X    g    - 
<1>    X    X    p    M 

      <a>  <b>  <c>  <d> 

=11
=16
# call move(): move : 26-27 
------------Red-------------
<8>    X    X    X    X 
<7>    X    N    X    X 
<6>    X    n    X    X 
<5>    X    X    X    X 
<4>    X    X    P    n 
<3>    X    X    -    P 
<2>    X    X    -    g 
<1>    X    X    p    M 

      <a>  <b>  <c>  <d> 

=10
=16
My result: 
--------------------------
NegaScout: 2031.500000 (node: 3829216)
(31) -> (30)
< M > -> < p >
move:d1-c1
--------------------------
------------Red-------------
<8>    X    X    X    X 
<7>    X    N    X    X 
<6>    X    n    X    X 
<5>    X    X    X    X 
<4>    X    X    P    n 
<3>    X    X    -    P 
<2>    X    X    -    g 
<1>    X    X    p    M 

      <a>  <b>  <c>  <d> 

=12 d1 c1
# call move(): move : 31-30 
------------Red-------------
<8>    X    X    X    X 
<7>    X    N    X    X 
<6>    X    n    X    X 
<5>    X    X    X    X 
<4>    X    X    P    n 
<3>    X    X    -    P 
<2>    X    X    -    g 
<1>    X    X    M    - 

      <a>  <b>  <c>  <d> 

=10
=16
# call move(): move : 27-26 
------------Red-------------
<8>    X    X    X    X 
<7>    X    N    X    X 
<6>    X    n    X    X 
<5>    X    X    X    X 
<4>    X    X    P    n 
<3>    X    X    -    P 
<2>    X    X    g    - 
<1>    X    X    M    - 

      <a>  <b>  <c>  <d> 

=10
=16
My result: 
--------------------------
NegaScout: 1872.050000 (node: 5210893)
(30) -> (31)
< M > -> < - >
move:c1-d1
--------------------------
------------Red-------------
<8>    X    X    X    X 
<7>    X    N    X    X 
<6>    X    n    X    X 
<5>    X    X    X    X 
<4>    X    X    P    n 
<3>    X    X    -    P 
<2>    X    X    g    - 
<1>    X    X    M    - 

      <a>  <b>  <c>  <d> 

=12 c1 d1
# call move(): move : 30-31 
------------Red-------------
<8>    X    X    X    X 
<7>    X    N    X    X 
<6>    X    n    X    X 
<5>    X    X    X    X 
<4>    X    X    P    n 
<3>    X    X    -    P 
<2>    X    X    g    - 
<1>    X    X    -    M 

      <a>  <b>  <c>  <d> 

=10
=16
# call move(): move : 26-30 
------------Red-------------
<8>    X    X    X    X 
<7>    X    N    X    X 
<6>    X    n    X    X 
<5>    X    X    X    X 
<4>    X    X    P    n 
<3>    X    X    -    P 
<2>    X    X    -    - 
<1>    X    X    g    M 

      <a>  <b>  <c>  <d> 

=10
=16
My result: 
--------------------------
NegaScout: 2032.050000 (node: 4188072)
(31) -> (27)
< M > -> < - >
move:d1-d2
--------------------------
------------Red-------------
<8>    X    X    X    X 
<7>    X    N    X    X 
<6>    X    n    X    X 
<5>    X    X    X    X 
<4>    X    X    P    n 
<3>    X    X    -    P 
<2>    X    X    -    - 
<1>    X    X    g    M 

      <a>  <b>  <c>  <d> 

=12 d1 d2
# call move(): move : 31-27 
------------Red-------------
<8>    X    X    X    X 
<7>    X    N    X    X 
<6>    X    n    X    X 
<5>    X    X    X    X 
<4>    X    X    P    n 
<3>    X    X    -    P 
<2>    X    X    -    M 
<1>    X    X    g    - 

      <a>  <b>  <c>  <d> 

=10
=16
# call move(): move : 30-26 
------------Red-------------
<8>    X    X    X    X 
<7>    X    N    X    X 
<6>    X    n    X    X 
<5>    X    X    X    X 
<4>    X    X    P    n 
<3>    X    X    -    P 
<2>    X    X    g    M 
<1>    X    X    -    - 

      <a>  <b>  <c>  <d> 

=10
=16
My result: 
--------------------------
NegaScout: 1872.050000 (node: 4822391)
(27) -> (31)
< M > -> < - >
move:d2-d1
--------------------------
------------Red-------------
<8>    X    X    X    X 
<7>    X    N    X    X 
<6>    X    n    X    X 
<5>    X    X    X    X 
<4>    X    X    P    n 
<3>    X    X    -    P 
<2>    X    X    g    M 
<1>    X    X    -    - 

      <a>  <b>  <c>  <d> 

=12 d2 d1
# call move(): move : 27-31 
------------Red-------------
<8>    X    X    X    X 
<7>    X    N    X    X 
<6>    X    n    X    X 
<5>    X    X    X    X 
<4>    X    X    P    n 
<3>    X    X    -    P 
<2>    X    X    g    - 
<1>    X    X    -    M 

      <a>  <b>  <c>  <d> 

=10
=16
# call move(): move : 26-27 
------------Red-------------
<8>    X    X    X    X 
<7>    X    N    X    X 
<6>    X    n    X    X 
<5>    X    X    X    X 
<4>    X    X    P    n 
<3>    X    X    -    P 
<2>    X    X    -    g 
<1>    X    X    -    M 

      <a>  <b>  <c>  <d> 

=10
=16
My result: 
--------------------------
NegaScout: 2031.500000 (node: 4136799)
(31) -> (30)
< M > -> < - >
move:d1-c1
--------------------------
------------Red-------------
<8>    X    X    X    X 
<7>    X    N    X    X 
<6>    X    n    X    X 
<5>    X    X    X    X 
<4>    X    X    P    n 
<3>    X    X    -    P 
<2>    X    X    -    g 
<1>    X    X    -    M 

      <a>  <b>  <c>  <d> 

=12 d1 c1
# call move(): move : 31-30 
------------Red-------------
<8>    X    X    X    X 
<7>    X    N    X    X 
<6>    X    n    X    X 
<5>    X    X    X    X 
<4>    X    X    P    n 
<3>    X    X    -    P 
<2>    X    X    -    g 
<1>    X    X    M    - 

      <a>  <b>  <c>  <d> 

=10
=16
# call move(): move : 27-31 
------------Red-------------
<8>    X    X    X    X 
<7>    X    N    X    X 
<6>    X    n    X    X 
<5>    X    X    X    X 
<4>    X    X    P    n 
<3>    X    X    -    P 
<2>    X    X    -    - 
<1>    X    X    M    g 

      <a>  <b>  <c>  <d> 

=10
=16
My result: 
--------------------------
NegaScout: 2033.890000 (node: 5600784)
(30) -> (26)
< M > -> < - >
move:c1-c2
--------------------------
------------Red-------------
<8>    X    X    X    X 
<7>    X    N    X    X 
<6>    X    n    X    X 
<5>    X    X    X    X 
<4>    X    X    P    n 
<3>    X    X    -    P 
<2>    X    X    -    - 
<1>    X    X    M    g 

      <a>  <b>  <c>  <d> 

=12 c1 c2
# call move(): move : 30-26 
------------Red-------------
<8>    X    X    X    X 
<7>    X    N    X    X 
<6>    X    n    X    X 
<5>    X    X    X    X 
<4>    X    X    P    n 
<3>    X    X    -    P 
<2>    X    X    M    - 
<1>    X    X    -    g 

      <a>  <b>  <c>  <d> 

=10
=16
# call move(): move : 31-27 
------------Red-------------
<8>    X    X    X    X 
<7>    X    N    X    X 
<6>    X    n    X    X 
<5>    X    X    X    X 
<4>    X    X    P    n 
<3>    X    X    -    P 
<2>    X    X    M    g 
<1>    X    X    -    - 

      <a>  <b>  <c>  <d> 

=10
=16
My result: 
--------------------------
NegaScout: 2031.500000 (node: 5488834)
(26) -> (30)
< M > -> < - >
move:c2-c1
--------------------------
------------Red-------------
<8>    X    X    X    X 
<7>    X    N    X    X 
<6>    X    n    X    X 
<5>    X    X    X    X 
<4>    X    X    P    n 
<3>    X    X    -    P 
<2>    X    X    M    g 
<1>    X    X    -    - 

      <a>  <b>  <c>  <d> 

=12 c2 c1
# call move(): move : 26-30 
------------Red-------------
<8>    X    X    X    X 
<7>    X    N    X    X 
<6>    X    n    X    X 
<5>    X    X    X    X 
<4>    X    X    P    n 
<3>    X    X    -    P 
<2>    X    X    -    g 
<1>    X    X    M    - 

      <a>  <b>  <c>  <d> 

=10
=16
# call move(): move : 27-31 
------------Red-------------
<8>    X    X    X    X 
<7>    X    N    X    X 
<6>    X    n    X    X 
<5>    X    X    X    X 
<4>    X    X    P    n 
<3>    X    X    -    P 
<2>    X    X    -    - 
<1>    X    X    M    g 

      <a>  <b>  <c>  <d> 

=10
=16
My result: 
--------------------------
NegaScout: 2033.890000 (node: 5590391)
(30) -> (26)
< M > -> < - >
move:c1-c2
--------------------------
------------Red-------------
<8>    X    X    X    X 
<7>    X    N    X    X 
<6>    X    n    X    X 
<5>    X    X    X    X 
<4>    X    X    P    n 
<3>    X    X    -    P 
<2>    X    X    -    - 
<1>    X    X    M    g 

      <a>  <b>  <c>  <d> 

=12 c1 c2
# call move(): move : 30-26 
------------Red-------------
<8>    X    X    X    X 
<7>    X    N    X    X 
<6>    X    n    X    X 
<5>    X    X    X    X 
<4>    X    X    P    n 
<3>    X    X    -    P 
<2>    X    X    M    - 
<1>    X    X    -    g 

      <a>  <b>  <c>  <d> 

=10
=16
# call move(): move : 31-27 
------------Red-------------
<8>    X    X    X    X 
<7>    X    N    X    X 
<6>    X    n    X    X 
<5>    X    X    X    X 
<4>    X    X    P    n 
<3>    X    X    -    P 
<2>    X    X    M    g 
<1>    X    X    -    - 

      <a>  <b>  <c>  <d> 

=10
=16
My result: 
--------------------------
NegaScout: 1325.040000 (node: 6825367)
(26) -> (30)
< M > -> < - >
move:c2-c1
--------------------------
------------Red-------------
<8>    X    X    X    X 
<7>    X    N    X    X 
<6>    X    n    X    X 
<5>    X    X    X    X 
<4>    X    X    P    n 
<3>    X    X    -    P 
<2>    X    X    M    g 
<1>    X    X    -    - 

      <a>  <b>  <c>  <d> 

=12 c2 c1
# call move(): move : 26-30 
------------Red-------------
<8>    X    X    X    X 
<7>    X    N    X    X 
<6>    X    n    X    X 
<5>    X    X    X    X 
<4>    X    X    P    n 
<3>    X    X    -    P 
<2>    X    X    -    g 
<1>    X    X    M    - 

      <a>  <b>  <c>  <d> 

=10
=16
# call move(): move : 27-31 
------------Red-------------
<8>    X    X    X    X 
<7>    X    N    X    X 
