INITIAL
* 3:57pm Jan 13, 2022
* chan vs chan2
* 1 2 2 2 2 2 5 1 2 2 2 2 2 5
* X X X X
* X X X X
* X X X X
* X X X X
* X X X X
* X X X X
* X X X X
* X X X X
* first 1
* time 900
* 1. b8(p) b2(N)
* 2. a8(m) b3(P)
* 3. b7(p) c3(G)
* 4. a7(k) a6(r)
* 5. b6(p) a2(P)
* 6. c8(p) c7(G)
* 7. c5(r) d7(c)
* 8. b5(g) c7-d7
* 9. b4(P) d7-c7
* 10. a4(M) d4(R)
* 11. c1(n) d2(M)
* 12. d1(m) d2-d1
* 13. a3(p) b3-a3
* 14. b5-b4 d1-c1
* 15. a1(P) c7-c8
* 16. d5(K) d6(g)
* 17. d6-d7 c8-b8
* 18. b4-a4 d5-c5
* 19. a4-a3 d3(R)
* 20. a3-a2 c4(P)
* 21. a2-a1 c5-d5
* 22. a1-a2 c3-b3
* 23. b7-c7 c2(c)
* 24. a7-b7 b8-a8
* 25. b7-a7 a8-b8
* 26. a7-b7 b8-c8
* 27. b7-b8 c8-c7
* 28. d7-c7 b2-c2
* 29. a2-a1 b3-b2
* 30. a5(C) a5-b5
* 31. b8-a8 b1(N)
* 32. a6-a5 b5-c5
* 33. c7-b7 c4-c3
* 34. a5-b5 c5-c4
* 35. b5-b4 c2-d2
* 36. a8-a7 d8(n)
* 37. b4-c4 d4-c4
* 38. a7-a6 c4-b4
* 39. a6-a5 d5-c5
* 40. a5-b5 c5-c4
* 41. c6(C) c3-b3
* 42. b6-a6 c1-c2
* 43. d8-d7 b4-a4
* 44. d7-d6 b3-b4
* 45. b5-a5 c6-c5
* 46. d6-d5 c5-b5
* 47. b7-b6 c4-c5
* 48. a6-a7 b5-d5
* 49. a5-a6 c2-c3
* 50. a7-a8 c3-c4
* 51. a8-b8 d3-c3
* 52. a6-a7 b1-c1
* 53. b8-c8 c5-b5
* 54. a7-b7 c4-c5
* 55. c8-b8 d5-d4
* 56. b8-a8 b4-c4
* 57. a8-a7 a4-a5
* 58. a7-a8 c1-d1
* 59. a8-b8 d4-d3
* 60. b6-c6 b2-b3
* 61. b7-a7 c4-d4
* 62. a7-a6 c3-c4
* 63. b8-b7 d3-c3
* 64. a6-b6 b5-b4
* 65. b6-a6 a5-a4
* 66. c6-d6 c3-d3
* 67. d6-c6 d3-c3
* 68. c6-d6 c3-d3
* 69. d6-c6 d3-c3
* 70. c6-d6 c3-d3
* 71. d6-d7 d3-d7
* 72. a1-b1 d2-c2
* 73. a6-b6 d4-d5
* 74. b6-a6 c5-c6
* 75. a6-a5 d7-d6
* 76. b7-b6 c6-b6
* 77. b1-c1 b3-b2
* 78. a5-a6 d6-a6
* 79. c1-d1 b4-b3
* 80. d1-d2 b3-c3
* 81. d2-c2 b2-c2
* NoMove chan2 Wins 0.000000,1.000000
* Comment 0 0
0. 1642060659589
1. 1642060659589
2. 1642060659713
3. 1642060659988
4. 1642060660284
5. 1642060660834
6. 1642060661860
7. 1642060663346
8. 1642060665035
9. 1642060667004
10. 1642060669230
11. 1642060672653
12. 1642060675968
13. 1642060676705
14. 1642060676937
15. 1642060677764
16. 1642060678117
17. 1642060678667
18. 1642060679176
19. 1642060679766
20. 1642060680367
21. 1642060681264
22. 1642060681942
23. 1642060682700
24. 1642060683304
25. 1642060684812
26. 1642060688394
27. 1642060692252
28. 1642060697752
29. 1642060701955
30. 1642060705940
31. 1642060711247
32. 1642060721043
33. 1642060722340
34. 1642060722705
35. 1642060723035
36. 1642060725524
37. 1642060725974
38. 1642060726554
39. 1642060735568
40. 1642060742035
41. 1642060750229
42. 1642060753360
43. 1642060755283
44. 1642060757768
45. 1642060759648
46. 1642060760812
47. 1642060762549
48. 1642060765408
49. 1642060767555
50. 1642060770499
51. 1642060773048
52. 1642060775797
53. 1642060776826
54. 1642060780276
55. 1642060782598
56. 1642060784219
57. 1642060785288
58. 1642060789342
59. 1642060794379
60. 1642060795956
61. 1642060797284
62. 1642060799593
63. 1642060803220
64. 1642060805642
65. 1642060808335
66. 1642060811992
67. 1642060814301
68. 1642060817636
69. 1642060821732
70. 1642060825825
71. 1642060829854
72. 1642060833576
73. 1642060836655
74. 1642060848857
75. 1642060852324
76. 1642060862171
77. 1642060865368
78. 1642060878560
79. 1642060885698
80. 1642060891426
81. 1642060915844
82. 1642060924756
83. 1642060947664
84. 1642060951720
85. 1642060978125
86. 1642060986820
87. 1642060995924
88. 1642061006205
89. 1642061016805
90. 1642061022176
91. 1642061027244
92. 1642061032167
93. 1642061037628
94. 1642061046722
95. 1642061057070
96. 1642061063456
97. 1642061072115
98. 1642061078218
99. 1642061093176
100. 1642061100331
101. 1642061123659
102. 1642061127668
103. 1642061131545
104. 1642061137823
105. 1642061141952
106. 1642061147445
107. 1642061151334
108. 1642061158092
109. 1642061163639
110. 1642061171073
111. 1642061174624
112. 1642061179663
113. 1642061183253
114. 1642061190744
115. 1642061197426
116. 1642061200701
117. 1642061204584
118. 1642061209309
119. 1642061218460
120. 1642061222512
121. 1642061230946
122. 1642061239708
123. 1642061256532
124. 1642061268091
125. 1642061277659
126. 1642061282992
127. 1642061289223
128. 1642061296932
129. 1642061301748
130. 1642061307831
131. 1642061314295
132. 1642061318604
133. 1642061323739
134. 1642061328432
135. 1642061333980
136. 1642061340046
137. 1642061344770
138. 1642061348948
139. 1642061353943
140. 1642061361684
141. 1642061365416
142. 1642061369704
143. 1642061383820
144. 1642061388956
145. 1642061392134
146. 1642061400371
147. 1642061406520
148. 1642061415741
149. 1642061418238
150. 1642061428564
151. 1642061432391
152. 1642061435434
153. 1642061441624
154. 1642061448932
155. 1642061452192
156. 1642061457844
157. 1642061460530
158. 1642061464027
159. 1642061468920
160. 1642061469763
161. 1642061473303
162. 1642061473392

# 17 37 67 87 117 137 167 187 217 237 267 287 317 337 367 387 417 437 467 487 517 537 567 587 617 637 667 687 717 737 767 787 817 837 867 887 917 937 967 987 1017 1037 1067 1087 1117 1137 1167 1187 1217 1237 1267 1287 1317 1337 1367 1387 1417 1437 1467 1487 1517 1537 1567 1587 1617 1637 1667 1687 1717 1737 1767 1787 1817 1837 1867 1887 1917 1937 1967 1987 2017 2037 2067 2087 2117 2137 2167 2187 2217 2237 2267 2287 2317 2337 2367 2387 2417 2437 2467 2487 2517 2537 2567 2587 2617 2637 2667 2687 2717 2737 2767 2787 2817 2837 2867 2887 2917 2937 2967 2987 3017 3037 3067 3087 3117 3137 3167 3187 3217 3237 3267 3287 3317 3337 3367 3387 3417 3437 3467 3487 3517 3537 3567 3587 3617 3637 3667 3687 3717 3737 3767 3787 3817 3837 3867 3887 3917 3937 3967 3987 4017 4037 #
=1 MyAI
=2 1.0.0
------------Red-------------
<8>    X    X    X    X 
<7>    X    X    X    X 
<6>    X    X    X    X 
<5>    X    X    X    X 
<4>    X    X    X    X 
<3>    X    X    X    X 
<2>    X    X    X    X 
<1>    X    X    X    X 

      <a>  <b>  <c>  <d> 

=7
=15
=14
My result: 
--------------------------
NegaScout: 0.000000 (node: 1279348297)
(1) -> (1)
< X > -> < X >
move:b8-b8
--------------------------
------------Black-------------
<8>    X    X    X    X 
<7>    X    X    X    X 
<6>    X    X    X    X 
<5>    X    X    X    X 
<4>    X    X    X    X 
<3>    X    X    X    X 
<2>    X    X    X    X 
<1>    X    X    X    X 

      <a>  <b>  <c>  <d> 

=12 b8 b8
# call flip(): flip(1,1) = 15
------------Black-------------
<8>    X    p    X    X 
<7>    X    X    X    X 
<6>    X    X    X    X 
<5>    X    X    X    X 
<4>    X    X    X    X 
<3>    X    X    X    X 
<2>    X    X    X    X 
<1>    X    X    X    X 

      <a>  <b>  <c>  <d> 

=11
=16
# call flip(): flip(25,25) = 5
------------Black-------------
<8>    X    p    X    X 
<7>    X    X    X    X 
<6>    X    X    X    X 
<5>    X    X    X    X 
<4>    X    X    X    X 
<3>    X    X    X    X 
<2>    X    N    X    X 
<1>    X    X    X    X 

      <a>  <b>  <c>  <d> 

=11
=16
My result: 
--------------------------
NegaScout: 85.163793 (node: 133843)
(0) -> (0)
< X > -> < X >
move:a8-a8
--------------------------
------------Black-------------
<8>    X    p    X    X 
<7>    X    X    X    X 
<6>    X    X    X    X 
<5>    X    X    X    X 
<4>    X    X    X    X 
<3>    X    X    X    X 
<2>    X    N    X    X 
<1>    X    X    X    X 

      <a>  <b>  <c>  <d> 

=12 a8 a8
# call flip(): flip(0,0) = 11
------------Black-------------
<8>    m    p    X    X 
<7>    X    X    X    X 
<6>    X    X    X    X 
<5>    X    X    X    X 
<4>    X    X    X    X 
<3>    X    X    X    X 
<2>    X    N    X    X 
<1>    X    X    X    X 

      <a>  <b>  <c>  <d> 

=11
=16
# call flip(): flip(21,21) = 7
------------Black-------------
<8>    m    p    X    X 
<7>    X    X    X    X 
<6>    X    X    X    X 
<5>    X    X    X    X 
<4>    X    X    X    X 
<3>    X    P    X    X 
<2>    X    N    X    X 
<1>    X    X    X    X 

      <a>  <b>  <c>  <d> 

=11
=16
My result: 
--------------------------
NegaScout: -149.814206 (node: 394167)
(5) -> (5)
< X > -> < X >
move:b7-b7
--------------------------
------------Black-------------
<8>    m    p    X    X 
<7>    X    X    X    X 
<6>    X    X    X    X 
<5>    X    X    X    X 
<4>    X    X    X    X 
<3>    X    P    X    X 
<2>    X    N    X    X 
<1>    X    X    X    X 

      <a>  <b>  <c>  <d> 

=12 b7 b7
# call flip(): flip(5,5) = 15
------------Black-------------
<8>    m    p    X    X 
<7>    X    p    X    X 
<6>    X    X    X    X 
<5>    X    X    X    X 
<4>    X    X    X    X 
<3>    X    P    X    X 
<2>    X    N    X    X 
<1>    X    X    X    X 

      <a>  <b>  <c>  <d> 

=11
=16
# call flip(): flip(22,22) = 2
------------Black-------------
<8>    m    p    X    X 
<7>    X    p    X    X 
<6>    X    X    X    X 
<5>    X    X    X    X 
<4>    X    X    X    X 
<3>    X    P    G    X 
<2>    X    N    X    X 
<1>    X    X    X    X 

      <a>  <b>  <c>  <d> 

=11
=16
My result: 
--------------------------
NegaScout: -45.560169 (node: 1152131)
(4) -> (4)
< X > -> < X >
move:a7-a7
--------------------------
------------Black-------------
<8>    m    p    X    X 
<7>    X    p    X    X 
<6>    X    X    X    X 
<5>    X    X    X    X 
<4>    X    X    X    X 
<3>    X    P    G    X 
<2>    X    N    X    X 
<1>    X    X    X    X 

      <a>  <b>  <c>  <d> 

=12 a7 a7
# call flip(): flip(4,4) = 9
------------Black-------------
<8>    m    p    X    X 
<7>    k    p    X    X 
<6>    X    X    X    X 
<5>    X    X    X    X 
<4>    X    X    X    X 
<3>    X    P    G    X 
<2>    X    N    X    X 
<1>    X    X    X    X 

      <a>  <b>  <c>  <d> 

=11
=16
# call flip(): flip(8,8) = 12
------------Black-------------
<8>    m    p    X    X 
<7>    k    p    X    X 
<6>    r    X    X    X 
<5>    X    X    X    X 
<4>    X    X    X    X 
<3>    X    P    G    X 
<2>    X    N    X    X 
<1>    X    X    X    X 

      <a>  <b>  <c>  <d> 

=11
=16
My result: 
--------------------------
NegaScout: 581.360507 (node: 1395673)
(9) -> (9)
< X > -> < X >
move:b6-b6
--------------------------
------------Black-------------
<8>    m    p    X    X 
<7>    k    p    X    X 
<6>    r    X    X    X 
<5>    X    X    X    X 
<4>    X    X    X    X 
<3>    X    P    G    X 
<2>    X    N    X    X 
<1>    X    X    X    X 

      <a>  <b>  <c>  <d> 

=12 b6 b6
# call flip(): flip(9,9) = 15
------------Black-------------
<8>    m    p    X    X 
<7>    k    p    X    X 
<6>    r    p    X    X 
<5>    X    X    X    X 
<4>    X    X    X    X 
<3>    X    P    G    X 
<2>    X    N    X    X 
<1>    X    X    X    X 

      <a>  <b>  <c>  <d> 

=11
=16
# call flip(): flip(24,24) = 7
------------Black-------------
<8>    m    p    X    X 
<7>    k    p    X    X 
<6>    r    p    X    X 
<5>    X    X    X    X 
<4>    X    X    X    X 
<3>    X    P    G    X 
<2>    P    N    X    X 
<1>    X    X    X    X 

      <a>  <b>  <c>  <d> 

=11
=16
My result: 
--------------------------
NegaScout: 211.145909 (node: 2385221)
(2) -> (2)
< X > -> < X >
move:c8-c8
--------------------------
------------Black-------------
<8>    m    p    X    X 
<7>    k    p    X    X 
<6>    r    p    X    X 
<5>    X    X    X    X 
<4>    X    X    X    X 
<3>    X    P    G    X 
<2>    P    N    X    X 
<1>    X    X    X    X 

      <a>  <b>  <c>  <d> 

=12 c8 c8
# call flip(): flip(2,2) = 15
------------Black-------------
<8>    m    p    p    X 
<7>    k    p    X    X 
<6>    r    p    X    X 
<5>    X    X    X    X 
<4>    X    X    X    X 
<3>    X    P    G    X 
<2>    P    N    X    X 
<1>    X    X    X    X 

      <a>  <b>  <c>  <d> 

=11
=16
# call flip(): flip(6,6) = 2
------------Black-------------
<8>    m    p    p    X 
<7>    k    p    G    X 
<6>    r    p    X    X 
<5>    X    X    X    X 
<4>    X    X    X    X 
<3>    X    P    G    X 
<2>    P    N    X    X 
<1>    X    X    X    X 

      <a>  <b>  <c>  <d> 

=11
=16
My result: 
--------------------------
NegaScout: -146.562500 (node: 375080)
(14) -> (14)
< X > -> < X >
move:c5-c5
--------------------------
------------Black-------------
<8>    m    p    p    X 
<7>    k    p    G    X 
<6>    r    p    X    X 
<5>    X    X    X    X 
<4>    X    X    X    X 
<3>    X    P    G    X 
<2>    P    N    X    X 
<1>    X    X    X    X 

      <a>  <b>  <c>  <d> 

=12 c5 c5
# call flip(): flip(14,14) = 12
------------Black-------------
<8>    m    p    p    X 
<7>    k    p    G    X 
<6>    r    p    X    X 
<5>    X    X    r    X 
<4>    X    X    X    X 
<3>    X    P    G    X 
<2>    P    N    X    X 
<1>    X    X    X    X 

      <a>  <b>  <c>  <d> 

=11
=16
# call flip(): flip(7,7) = 14
------------Black-------------
<8>    m    p    p    X 
<7>    k    p    G    c 
<6>    r    p    X    X 
<5>    X    X    r    X 
<4>    X    X    X    X 
<3>    X    P    G    X 
<2>    P    N    X    X 
<1>    X    X    X    X 

      <a>  <b>  <c>  <d> 

=11
=16
My result: 
--------------------------
NegaScout: -2491.450556 (node: 473948)
(13) -> (13)
< X > -> < X >
move:b5-b5
--------------------------
------------Black-------------
<8>    m    p    p    X 
<7>    k    p    G    c 
<6>    r    p    X    X 
<5>    X    X    r    X 
<4>    X    X    X    X 
<3>    X    P    G    X 
<2>    P    N    X    X 
<1>    X    X    X    X 

      <a>  <b>  <c>  <d> 

=12 b5 b5
# call flip(): flip(13,13) = 10
------------Black-------------
<8>    m    p    p    X 
<7>    k    p    G    c 
<6>    r    p    X    X 
<5>    X    g    r    X 
<4>    X    X    X    X 
<3>    X    P    G    X 
<2>    P    N    X    X 
<1>    X    X    X    X 

      <a>  <b>  <c>  <d> 

=11
=16
# call move(): move : 6-7 
------------Black-------------
<8>    m    p    p    X 
<7>    k    p    -    G 
<6>    r    p    X    X 
<5>    X    g    r    X 
<4>    X    X    X    X 
<3>    X    P    G    X 
<2>    P    N    X    X 
<1>    X    X    X    X 

      <a>  <b>  <c>  <d> 

=10
=16
My result: 
--------------------------
NegaScout: -3475.993529 (node: 326511)
(17) -> (17)
< X > -> < X >
move:b4-b4
--------------------------
------------Black-------------
<8>    m    p    p    X 
<7>    k    p    -    G 
<6>    r    p    X    X 
<5>    X    g    r    X 
<4>    X    X    X    X 
<3>    X    P    G    X 
<2>    P    N    X    X 
<1>    X    X    X    X 

      <a>  <b>  <c>  <d> 

=12 b4 b4
# call flip(): flip(17,17) = 7
------------Black-------------
<8>    m    p    p    X 
<7>    k    p    -    G 
<6>    r    p    X    X 
<5>    X    g    r    X 
<4>    X    P    X    X 
<3>    X    P    G    X 
<2>    P    N    X    X 
<1>    X    X    X    X 

      <a>  <b>  <c>  <d> 

=11
=16
# call move(): move : 7-6 
------------Black-------------
<8>    m    p    p    X 
<7>    k    p    G    - 
<6>    r    p    X    X 
<5>    X    g    r    X 
<4>    X    P    X    X 
<3>    X    P    G    X 
<2>    P    N    X    X 
<1>    X    X    X    X 

      <a>  <b>  <c>  <d> 

=10
=16
My result: 
--------------------------
NegaScout: -3043.990000 (node: 323597)
(16) -> (16)
< X > -> < X >
move:a4-a4
--------------------------
------------Black-------------
<8>    m    p    p    X 
<7>    k    p    G    - 
<6>    r    p    X    X 
<5>    X    g    r    X 
<4>    X    P    X    X 
<3>    X    P    G    X 
<2>    P    N    X    X 
<1>    X    X    X    X 

      <a>  <b>  <c>  <d> 

=12 a4 a4
# call flip(): flip(16,16) = 3
------------Black-------------
<8>    m    p    p    X 
<7>    k    p    G    - 
<6>    r    p    X    X 
<5>    X    g    r    X 
<4>    M    P    X    X 
<3>    X    P    G    X 
<2>    P    N    X    X 
<1>    X    X    X    X 

      <a>  <b>  <c>  <d> 

=11
=16
# call flip(): flip(19,19) = 4
------------Black-------------
<8>    m    p    p    X 
<7>    k    p    G    - 
<6>    r    p    X    X 
<5>    X    g    r    X 
<4>    M    P    X    R 
<3>    X    P    G    X 
<2>    P    N    X    X 
<1>    X    X    X    X 

      <a>  <b>  <c>  <d> 

=11
=16
My result: 
--------------------------
NegaScout: -1312.814286 (node: 338604)
(30) -> (30)
< X > -> < X >
move:c1-c1
--------------------------
------------Black-------------
<8>    m    p    p    X 
<7>    k    p    G    - 
<6>    r    p    X    X 
<5>    X    g    r    X 
<4>    M    P    X    R 
<3>    X    P    G    X 
<2>    P    N    X    X 
<1>    X    X    X    X 

      <a>  <b>  <c>  <d> 

=12 c1 c1
# call flip(): flip(30,30) = 13
------------Black-------------
<8>    m    p    p    X 
<7>    k    p    G    - 
<6>    r    p    X    X 
<5>    X    g    r    X 
<4>    M    P    X    R 
<3>    X    P    G    X 
<2>    P    N    X    X 
<1>    X    X    n    X 

      <a>  <b>  <c>  <d> 

=11
=16
# call flip(): flip(27,27) = 3
------------Black-------------
<8>    m    p    p    X 
<7>    k    p    G    - 
<6>    r    p    X    X 
<5>    X    g    r    X 
<4>    M    P    X    R 
<3>    X    P    G    X 
<2>    P    N    X    M 
<1>    X    X    n    X 

      <a>  <b>  <c>  <d> 

=11
=16
My result: 
--------------------------
NegaScout: -1709.493333 (node: 346766)
(31) -> (31)
< X > -> < X >
move:d1-d1
--------------------------
------------Black-------------
<8>    m    p    p    X 
<7>    k    p    G    - 
<6>    r    p    X    X 
<5>    X    g    r    X 
<4>    M    P    X    R 
<3>    X    P    G    X 
<2>    P    N    X    M 
<1>    X    X    n    X 

      <a>  <b>  <c>  <d> 

=12 d1 d1
# call flip(): flip(31,31) = 11
------------Black-------------
<8>    m    p    p    X 
<7>    k    p    G    - 
<6>    r    p    X    X 
<5>    X    g    r    X 
<4>    M    P    X    R 
<3>    X    P    G    X 
<2>    P    N    X    M 
<1>    X    X    n    m 

      <a>  <b>  <c>  <d> 

=11
=16
# call move(): move : 27-31 
------------Black-------------
<8>    m    p    p    X 
<7>    k    p    G    - 
<6>    r    p    X    X 
<5>    X    g    r    X 
<4>    M    P    X    R 
<3>    X    P    G    X 
<2>    P    N    X    - 
<1>    X    X    n    M 

      <a>  <b>  <c>  <d> 

=10
=16
My result: 
--------------------------
NegaScout: -3507.015909 (node: 714742)
(20) -> (20)
< X > -> < X >
move:a3-a3
--------------------------
------------Black-------------
<8>    m    p    p    X 
<7>    k    p    G    - 
<6>    r    p    X    X 
<5>    X    g    r    X 
<4>    M    P    X    R 
<3>    X    P    G    X 
<2>    P    N    X    - 
<1>    X    X    n    M 

      <a>  <b>  <c>  <d> 

=12 a3 a3
# call flip(): flip(20,20) = 15
------------Black-------------
<8>    m    p    p    X 
<7>    k    p    G    - 
<6>    r    p    X    X 
<5>    X    g    r    X 
<4>    M    P    X    R 
<3>    p    P    G    X 
<2>    P    N    X    - 
<1>    X    X    n    M 

      <a>  <b>  <c>  <d> 

=11
=16
# call move(): move : 21-20 
------------Black-------------
<8>    m    p    p    X 
<7>    k    p    G    - 
<6>    r    p    X    X 
<5>    X    g    r    X 
<4>    M    P    X    R 
<3>    P    -    G    X 
<2>    P    N    X    - 
<1>    X    X    n    M 

      <a>  <b>  <c>  <d> 

=10
=16
My result: 
--------------------------
NegaScout: -4824.140000 (node: 2098849)
(13) -> (17)
< g > -> < P >
move:b5-b4
--------------------------
------------Black-------------
<8>    m    p    p    X 
<7>    k    p    G    - 
<6>    r    p    X    X 
<5>    X    g    r    X 
<4>    M    P    X    R 
<3>    P    -    G    X 
<2>    P    N    X    - 
<1>    X    X    n    M 

      <a>  <b>  <c>  <d> 

=12 b5 b4
# call move(): move : 13-17 
------------Black-------------
<8>    m    p    p    X 
<7>    k    p    G    - 
<6>    r    p    X    X 
<5>    X    -    r    X 
<4>    M    g    X    R 
<3>    P    -    G    X 
<2>    P    N    X    - 
<1>    X    X    n    M 

      <a>  <b>  <c>  <d> 

=10
=16
# call move(): move : 31-30 
------------Black-------------
<8>    m    p    p    X 
<7>    k    p    G    - 
<6>    r    p    X    X 
<5>    X    -    r    X 
<4>    M    g    X    R 
<3>    P    -    G    X 
<2>    P    N    X    - 
<1>    X    X    M    - 

      <a>  <b>  <c>  <d> 

=10
=16
My result: 
--------------------------
NegaScout: -4277.144000 (node: 2306130)
(28) -> (28)
< X > -> < X >
move:a1-a1
--------------------------
------------Black-------------
