INITIAL
* 10:18am Jan 3, 2022
* chan vs ai
* 1 2 2 2 2 2 5 1 2 2 2 2 2 5
* X X X X
* X X X X
* X X X X
* X X X X
* X X X X
* X X X X
* X X X X
* X X X X
* first 1
* time 900
* 1. b5(p) b3(n)
* 2. b6(M) b6-b5
* 3. b8(C) d8(m)
* 4. b4(P) b8-d8
* 5. c8(g) d7(R)
* 6. c8-d8 c5(m)
* 7. c5-b5 c7(n)
* 8. d8-d7 d5(P)
* 9. b3-b4 d4(c)
* 10. d2(p) c4(p)
* 11. d1(K) d6(p)
* 12. d2-d1 d3(C)
* 13. d6-d5 d3-d5
* 14. c1(N) d5-d1
* 15. a4(P) d1-d2
* 16. b4-a4 d2-d3
* 17. a5(R) d3-d2
* 18. b5-a5 d2-d3
* 19. a6(M) a6-a5
* 20. a8(k) a2(c)
* 21. a4-b4 a5-b5
* 22. c2(P) a3(G)
* 23. a2-c2 c1-c2
* 24. c3(P) c3-c4
* 25. b4-c4 c2-c1
* 26. a7(r) d3-d2
* 27. a8-b8 d2-d3
* 28. b8-c8 a3-b3
* 29. b1(G) b3-a3
* 30. c6(p) d3-d7
* 31. c7-d7 b5-b6
* 32. c6-c5 b6-a6
* 33. a7-a8 a6-a7
* 34. a8-b8 a7-a8
* 35. b7(r) c1-d1
* 36. b7-b6 a3-a2
* 37. d7-d6 d1-c1
* 38. c4-c3 c1-c2
* 39. c3-c2 b1-c1
* 40. c2-c3 c1-c2
* 41. c3-b3 c2-c3
* 42. b3-b4 c3-c4
* 43. d4-d3 c4-c3
* 44. d3-d4 c3-d3
* 45. d4-c4 d3-c3
* 46. c4-d4 c3-c4
* 47. d4-d3 c4-c3
* 48. d3-d4 c3-c4
* 49. d4-d3 c4-d4
* 50. d3-c3 d4-c4
* 51. c3-c2 a2-a3
* 52. b4-b5 c4-c3
* 53. c2-d2 c3-d3
* 54. d2-c2 d3-c3
* 55. c2-d2 c3-d3
* 56. d2-c2 d3-d2
* 57. c2-c3 d2-d3
* 58. c3-c2 d3-c3
* 59. c2-d2 c3-c2
* 60. d2-d3 c2-d2
* 61. d3-c3 a3-b3
* 62. c3-c4 b3-c3
* 63. c4-d4 c3-c4
* 64. d4-d5 c4-c5
* 65. d5-d4 d2-d3
* 66. d4-d5 c5-d5
* 67. d6-d7 a8-b8
* 68. c8-b8 d5-c5
* 69. b5-b4 c5-b5
* 70. b8-b7 d3-c3
* 71. b4-a4 c3-b3
* 72. b6-c6 b5-c5
* 73. b7-b6 b3-a3
* 74. a4-b4 a3-a2
* 75. b4-b3 c5-d5
* 76. b6-b7 d5-d6
* 77. b7-c7 d6-d5
* 78. c7-b7 d5-d6
* 79. b7-c7 d6-d5
* 80. c7-b7 d5-d6
* 81. b7-c7 d6-d5
* 82. c7-b7
* PositionRepetitionDraw,3,4 chan Draw 0.500000,0.500000
* Comment 0 0
0. 1641176290533
1. 1641176290533
2. 1641176302849
3. 1641176306001
4. 1641176317141
5. 1641176319984
6. 1641176329091
7. 1641176336129
8. 1641176344357
9. 1641176353399
10. 1641176360956
11. 1641176370947
12. 1641176377667
13. 1641176383757
14. 1641176389149
15. 1641176394114
16. 1641176398184
17. 1641176402165
18. 1641176405604
19. 1641176408361
20. 1641176411333
21. 1641176414577
22. 1641176416417
23. 1641176419243
24. 1641176420816
25. 1641176423017
26. 1641176424073
27. 1641176425421
28. 1641176426245
29. 1641176427606
30. 1641176428242
31. 1641176430445
32. 1641176431149
33. 1641176432744
34. 1641176433165
35. 1641176434549
36. 1641176434929
37. 1641176435837
38. 1641176436113
39. 1641176436755
40. 1641176436880
41. 1641176437089
42. 1641176437162
43. 1641176437409
44. 1641176437505
45. 1641176437716
46. 1641176437760
47. 1641176437863
48. 1641176437887
49. 1641176438005
50. 1641176438069
51. 1641176438110
52. 1641176438129
53. 1641176438184
54. 1641176438204
55. 1641176438281
56. 1641176438341
57. 1641176438372
58. 1641176438397
59. 1641176438431
60. 1641176438440
61. 1641176438497
62. 1641176438545
63. 1641176438555
64. 1641176438595
65. 1641176438605
66. 1641176438613
67. 1641176438661
68. 1641176438709
69. 1641176438718
70. 1641176438758
71. 1641176438768
72. 1641176438777
73. 1641176438825
74. 1641176438873
75. 1641176438880
76. 1641176438922
77. 1641176438933
78. 1641176438940
79. 1641176438993
80. 1641176439041
81. 1641176439052
82. 1641176439091
83. 1641176439101
84. 1641176439108
85. 1641176439157
86. 1641176439213
87. 1641176439221
88. 1641176439263
89. 1641176439272
90. 1641176439279
91. 1641176439329
92. 1641176439377
93. 1641176439386
94. 1641176439427
95. 1641176439439
96. 1641176439446
97. 1641176439497
98. 1641176439545
99. 1641176439553
100. 1641176439595
101. 1641176439605
102. 1641176439613
103. 1641176439665
104. 1641176439717
105. 1641176439728
106. 1641176439768
107. 1641176439781
108. 1641176439790
109. 1641176439841
110. 1641176439889
111. 1641176439899
112. 1641176439940
113. 1641176439949
114. 1641176439959
115. 1641176440010
116. 1641176440057
117. 1641176440068
118. 1641176440108
119. 1641176440118
120. 1641176440129
121. 1641176440181
122. 1641176440233
123. 1641176440242
124. 1641176440284
125. 1641176440295
126. 1641176440307
127. 1641176440357
128. 1641176440413
129. 1641176440423
130. 1641176440464
131. 1641176440473
132. 1641176440482
133. 1641176440533
134. 1641176440581
135. 1641176440594
136. 1641176440632
137. 1641176440645
138. 1641176440652
139. 1641176440709
140. 1641176440765
141. 1641176440774
142. 1641176440817
143. 1641176440832
144. 1641176440846
145. 1641176440897
146. 1641176440946
147. 1641176440954
148. 1641176440996
149. 1641176441007
150. 1641176441014
151. 1641176441073
152. 1641176441121
153. 1641176441129
154. 1641176441172
155. 1641176441182
156. 1641176441190
157. 1641176441245
158. 1641176441293
159. 1641176441306
160. 1641176441345
161. 1641176441358
162. 1641176441365
163. 1641176441413

# 17 37 67 87 117 137 167 187 217 237 267 287 317 337 367 387 417 437 467 487 517 537 567 587 617 637 667 687 717 737 767 787 817 837 867 887 917 937 967 987 1017 1037 1067 1087 1117 1137 1167 1187 1217 1237 1267 1287 1317 1337 1367 1387 1417 1437 1467 1487 1517 1537 1567 1587 1617 1637 1667 1687 1717 1737 1767 1787 1817 1837 1867 1887 1917 1937 1967 1987 2017 2037 2067 2087 2117 2137 2167 2187 2217 2237 2267 2287 2317 2337 2367 2387 2417 2437 2467 2487 2517 2537 2567 2587 2617 2637 2667 2687 2717 2737 2767 2787 2817 2837 2867 2887 2917 2937 2967 2987 3017 3037 3067 3087 3117 3137 3167 3187 3217 3237 3267 3287 3317 3337 3367 3387 3417 3437 3467 3487 3517 3537 3567 3587 3617 3637 3667 3687 3717 3737 3767 3787 3817 3837 3867 3887 3917 3937 3967 3987 4017 4037 4067 4087 #
=1 MyAI
=2 1.0.0
------------Red-------------
<8>    X    X    X    X 
<7>    X    X    X    X 
<6>    X    X    X    X 
<5>    X    X    X    X 
<4>    X    X    X    X 
<3>    X    X    X    X 
<2>    X    X    X    X 
<1>    X    X    X    X 

      <a>  <b>  <c>  <d> 

=7
=15
=14
My result: 
--------------------------
NegaScout: 0.000000 (node: 1279348297)
(13) -> (13)
< X > -> < X >
move:b5-b5
--------------------------
------------Black-------------
<8>    X    X    X    X 
<7>    X    X    X    X 
<6>    X    X    X    X 
<5>    X    X    X    X 
<4>    X    X    X    X 
<3>    X    X    X    X 
<2>    X    X    X    X 
<1>    X    X    X    X 

      <a>  <b>  <c>  <d> 

=12 b5 b5
# call flip(): flip(13,13) = 15
------------Black-------------
<8>    X    X    X    X 
<7>    X    X    X    X 
<6>    X    X    X    X 
<5>    X    p    X    X 
<4>    X    X    X    X 
<3>    X    X    X    X 
<2>    X    X    X    X 
<1>    X    X    X    X 

      <a>  <b>  <c>  <d> 

=11
=16
# call flip(): flip(21,21) = 13
------------Black-------------
<8>    X    X    X    X 
<7>    X    X    X    X 
<6>    X    X    X    X 
<5>    X    p    X    X 
<4>    X    X    X    X 
<3>    X    n    X    X 
<2>    X    X    X    X 
<1>    X    X    X    X 

      <a>  <b>  <c>  <d> 

=11
=16
My result: 
--------------------------
NegaScout: 3308.056952 (node: 4199748)
(9) -> (9)
< X > -> < X >
move:b6-b6
--------------------------
------------Black-------------
<8>    X    X    X    X 
<7>    X    X    X    X 
<6>    X    X    X    X 
<5>    X    p    X    X 
<4>    X    X    X    X 
<3>    X    n    X    X 
<2>    X    X    X    X 
<1>    X    X    X    X 

      <a>  <b>  <c>  <d> 

=12 b6 b6
# call flip(): flip(9,9) = 3
------------Black-------------
<8>    X    X    X    X 
<7>    X    X    X    X 
<6>    X    M    X    X 
<5>    X    p    X    X 
<4>    X    X    X    X 
<3>    X    n    X    X 
<2>    X    X    X    X 
<1>    X    X    X    X 

      <a>  <b>  <c>  <d> 

=11
=16
# call move(): move : 9-13 
------------Black-------------
<8>    X    X    X    X 
<7>    X    X    X    X 
<6>    X    -    X    X 
<5>    X    M    X    X 
<4>    X    X    X    X 
<3>    X    n    X    X 
<2>    X    X    X    X 
<1>    X    X    X    X 

      <a>  <b>  <c>  <d> 

=10
=16
My result: 
--------------------------
NegaScout: -678.423911 (node: 5768597)
(1) -> (1)
< X > -> < X >
move:b8-b8
--------------------------
------------Black-------------
<8>    X    X    X    X 
<7>    X    X    X    X 
<6>    X    -    X    X 
<5>    X    M    X    X 
<4>    X    X    X    X 
<3>    X    n    X    X 
<2>    X    X    X    X 
<1>    X    X    X    X 

      <a>  <b>  <c>  <d> 

=12 b8 b8
# call flip(): flip(1,1) = 6
------------Black-------------
<8>    X    C    X    X 
<7>    X    X    X    X 
<6>    X    -    X    X 
<5>    X    M    X    X 
<4>    X    X    X    X 
<3>    X    n    X    X 
<2>    X    X    X    X 
<1>    X    X    X    X 

      <a>  <b>  <c>  <d> 

=11
=16
# call flip(): flip(3,3) = 11
------------Black-------------
<8>    X    C    X    m 
<7>    X    X    X    X 
<6>    X    -    X    X 
<5>    X    M    X    X 
<4>    X    X    X    X 
<3>    X    n    X    X 
<2>    X    X    X    X 
<1>    X    X    X    X 

      <a>  <b>  <c>  <d> 

=11
=16
My result: 
--------------------------
NegaScout: -2774.013825 (node: 11070124)
(17) -> (17)
< X > -> < X >
move:b4-b4
--------------------------
------------Black-------------
<8>    X    C    X    m 
<7>    X    X    X    X 
<6>    X    -    X    X 
<5>    X    M    X    X 
<4>    X    X    X    X 
<3>    X    n    X    X 
<2>    X    X    X    X 
<1>    X    X    X    X 

      <a>  <b>  <c>  <d> 

=12 b4 b4
# call flip(): flip(17,17) = 7
------------Black-------------
<8>    X    C    X    m 
<7>    X    X    X    X 
<6>    X    -    X    X 
<5>    X    M    X    X 
<4>    X    P    X    X 
<3>    X    n    X    X 
<2>    X    X    X    X 
<1>    X    X    X    X 

      <a>  <b>  <c>  <d> 

=11
=16
# call move(): move : 1-3 
------------Black-------------
<8>    X    -    X    C 
<7>    X    X    X    X 
<6>    X    -    X    X 
<5>    X    M    X    X 
<4>    X    P    X    X 
<3>    X    n    X    X 
<2>    X    X    X    X 
<1>    X    X    X    X 

      <a>  <b>  <c>  <d> 

=10
=16
My result: 
--------------------------
NegaScout: -2792.212044 (node: 14415198)
(2) -> (2)
< X > -> < X >
move:c8-c8
--------------------------
------------Black-------------
<8>    X    -    X    C 
<7>    X    X    X    X 
<6>    X    -    X    X 
<5>    X    M    X    X 
<4>    X    P    X    X 
<3>    X    n    X    X 
<2>    X    X    X    X 
<1>    X    X    X    X 

      <a>  <b>  <c>  <d> 

=12 c8 c8
# call flip(): flip(2,2) = 10
------------Black-------------
<8>    X    -    g    C 
<7>    X    X    X    X 
<6>    X    -    X    X 
<5>    X    M    X    X 
<4>    X    P    X    X 
<3>    X    n    X    X 
<2>    X    X    X    X 
<1>    X    X    X    X 

      <a>  <b>  <c>  <d> 

=11
=16
# call flip(): flip(7,7) = 4
------------Black-------------
<8>    X    -    g    C 
<7>    X    X    X    R 
<6>    X    -    X    X 
<5>    X    M    X    X 
<4>    X    P    X    X 
<3>    X    n    X    X 
<2>    X    X    X    X 
<1>    X    X    X    X 

      <a>  <b>  <c>  <d> 

=11
=16
My result: 
--------------------------
NegaScout: -1577.589167 (node: 13627485)
(2) -> (3)
< g > -> < C >
move:c8-d8
--------------------------
------------Black-------------
<8>    X    -    g    C 
<7>    X    X    X    R 
<6>    X    -    X    X 
<5>    X    M    X    X 
<4>    X    P    X    X 
<3>    X    n    X    X 
<2>    X    X    X    X 
<1>    X    X    X    X 

      <a>  <b>  <c>  <d> 

=12 c8 d8
# call move(): move : 2-3 
------------Black-------------
<8>    X    -    -    g 
<7>    X    X    X    R 
<6>    X    -    X    X 
<5>    X    M    X    X 
<4>    X    P    X    X 
<3>    X    n    X    X 
<2>    X    X    X    X 
<1>    X    X    X    X 

      <a>  <b>  <c>  <d> 

=10
=16
# call flip(): flip(14,14) = 11
------------Black-------------
<8>    X    -    -    g 
<7>    X    X    X    R 
<6>    X    -    X    X 
<5>    X    M    m    X 
<4>    X    P    X    X 
<3>    X    n    X    X 
<2>    X    X    X    X 
<1>    X    X    X    X 

      <a>  <b>  <c>  <d> 

=11
=16
My result: 
--------------------------
NegaScout: 914.978478 (node: 7836649)
(14) -> (13)
< m > -> < M >
move:c5-b5
--------------------------
------------Black-------------
<8>    X    -    -    g 
<7>    X    X    X    R 
<6>    X    -    X    X 
<5>    X    M    m    X 
<4>    X    P    X    X 
<3>    X    n    X    X 
<2>    X    X    X    X 
<1>    X    X    X    X 

      <a>  <b>  <c>  <d> 

=12 c5 b5
# call move(): move : 14-13 
------------Black-------------
<8>    X    -    -    g 
<7>    X    X    X    R 
<6>    X    -    X    X 
<5>    X    m    -    X 
<4>    X    P    X    X 
<3>    X    n    X    X 
<2>    X    X    X    X 
<1>    X    X    X    X 

      <a>  <b>  <c>  <d> 

=10
=16
# call flip(): flip(6,6) = 13
------------Black-------------
<8>    X    -    -    g 
<7>    X    X    n    R 
<6>    X    -    X    X 
<5>    X    m    -    X 
<4>    X    P    X    X 
<3>    X    n    X    X 
<2>    X    X    X    X 
<1>    X    X    X    X 

      <a>  <b>  <c>  <d> 

=11
=16
My result: 
--------------------------
NegaScout: 1698.240455 (node: 6312992)
(3) -> (7)
< g > -> < R >
move:d8-d7
--------------------------
------------Black-------------
<8>    X    -    -    g 
<7>    X    X    n    R 
<6>    X    -    X    X 
<5>    X    m    -    X 
<4>    X    P    X    X 
<3>    X    n    X    X 
<2>    X    X    X    X 
<1>    X    X    X    X 

      <a>  <b>  <c>  <d> 

=12 d8 d7
# call move(): move : 3-7 
------------Black-------------
<8>    X    -    -    - 
<7>    X    X    n    g 
<6>    X    -    X    X 
<5>    X    m    -    X 
<4>    X    P    X    X 
<3>    X    n    X    X 
<2>    X    X    X    X 
<1>    X    X    X    X 

      <a>  <b>  <c>  <d> 

=10
=16
# call flip(): flip(15,15) = 7
------------Black-------------
<8>    X    -    -    - 
<7>    X    X    n    g 
<6>    X    -    X    X 
<5>    X    m    -    P 
<4>    X    P    X    X 
<3>    X    n    X    X 
<2>    X    X    X    X 
<1>    X    X    X    X 

      <a>  <b>  <c>  <d> 

=11
=16
My result: 
--------------------------
NegaScout: 1845.991905 (node: 5264415)
(21) -> (17)
< n > -> < P >
move:b3-b4
--------------------------
------------Black-------------
<8>    X    -    -    - 
<7>    X    X    n    g 
<6>    X    -    X    X 
<5>    X    m    -    P 
<4>    X    P    X    X 
<3>    X    n    X    X 
<2>    X    X    X    X 
<1>    X    X    X    X 

      <a>  <b>  <c>  <d> 

=12 b3 b4
# call move(): move : 21-17 
------------Black-------------
<8>    X    -    -    - 
<7>    X    X    n    g 
<6>    X    -    X    X 
<5>    X    m    -    P 
<4>    X    n    X    X 
<3>    X    -    X    X 
<2>    X    X    X    X 
<1>    X    X    X    X 

      <a>  <b>  <c>  <d> 

=10
=16
# call flip(): flip(19,19) = 14
------------Black-------------
<8>    X    -    -    - 
<7>    X    X    n    g 
<6>    X    -    X    X 
<5>    X    m    -    P 
<4>    X    n    X    c 
<3>    X    -    X    X 
<2>    X    X    X    X 
<1>    X    X    X    X 

      <a>  <b>  <c>  <d> 

=11
=16
My result: 
--------------------------
NegaScout: 8253.519539 (node: 3493326)
(27) -> (27)
< X > -> < X >
move:d2-d2
--------------------------
------------Black-------------
<8>    X    -    -    - 
<7>    X    X    n    g 
<6>    X    -    X    X 
<5>    X    m    -    P 
<4>    X    n    X    c 
<3>    X    -    X    X 
<2>    X    X    X    X 
<1>    X    X    X    X 

      <a>  <b>  <c>  <d> 

=12 d2 d2
# call flip(): flip(27,27) = 15
------------Black-------------
<8>    X    -    -    - 
<7>    X    X    n    g 
<6>    X    -    X    X 
<5>    X    m    -    P 
<4>    X    n    X    c 
<3>    X    -    X    X 
<2>    X    X    X    p 
<1>    X    X    X    X 

      <a>  <b>  <c>  <d> 

=11
=16
# call flip(): flip(18,18) = 15
------------Black-------------
<8>    X    -    -    - 
<7>    X    X    n    g 
<6>    X    -    X    X 
<5>    X    m    -    P 
<4>    X    n    p    c 
<3>    X    -    X    X 
<2>    X    X    X    p 
<1>    X    X    X    X 

      <a>  <b>  <c>  <d> 

=11
=16
My result: 
--------------------------
NegaScout: 7531.142631 (node: 3882671)
(31) -> (31)
< X > -> < X >
move:d1-d1
--------------------------
------------Black-------------
<8>    X    -    -    - 
<7>    X    X    n    g 
<6>    X    -    X    X 
<5>    X    m    -    P 
<4>    X    n    p    c 
<3>    X    -    X    X 
<2>    X    X    X    p 
<1>    X    X    X    X 

      <a>  <b>  <c>  <d> 

=12 d1 d1
# call flip(): flip(31,31) = 1
------------Black-------------
<8>    X    -    -    - 
<7>    X    X    n    g 
<6>    X    -    X    X 
<5>    X    m    -    P 
<4>    X    n    p    c 
<3>    X    -    X    X 
<2>    X    X    X    p 
<1>    X    X    X    K 

      <a>  <b>  <c>  <d> 

=11
=16
# call flip(): flip(11,11) = 15
------------Black-------------
<8>    X    -    -    - 
<7>    X    X    n    g 
<6>    X    -    X    p 
<5>    X    m    -    P 
<4>    X    n    p    c 
<3>    X    -    X    X 
<2>    X    X    X    p 
<1>    X    X    X    K 

      <a>  <b>  <c>  <d> 

=11
=16
My result: 
--------------------------
NegaScout: 114165.102813 (node: 2824946)
(27) -> (31)
< p > -> < K >
move:d2-d1
--------------------------
------------Black-------------
<8>    X    -    -    - 
<7>    X    X    n    g 
<6>    X    -    X    p 
<5>    X    m    -    P 
<4>    X    n    p    c 
<3>    X    -    X    X 
<2>    X    X    X    p 
<1>    X    X    X    K 

      <a>  <b>  <c>  <d> 

=12 d2 d1
# call move(): move : 27-31 
------------Black-------------
<8>    X    -    -    - 
<7>    X    X    n    g 
<6>    X    -    X    p 
<5>    X    m    -    P 
<4>    X    n    p    c 
<3>    X    -    X    X 
<2>    X    X    X    - 
<1>    X    X    X    p 

      <a>  <b>  <c>  <d> 

=10
=16
# call flip(): flip(23,23) = 6
------------Black-------------
<8>    X    -    -    - 
<7>    X    X    n    g 
<6>    X    -    X    p 
<5>    X    m    -    P 
<4>    X    n    p    c 
<3>    X    -    X    C 
<2>    X    X    X    - 
<1>    X    X    X    p 

      <a>  <b>  <c>  <d> 

=11
=16
My result: 
--------------------------
NegaScout: 114289.945000 (node: 2008483)
(11) -> (15)
< p > -> < P >
move:d6-d5
--------------------------
------------Black-------------
<8>    X    -    -    - 
<7>    X    X    n    g 
<6>    X    -    X    p 
<5>    X    m    -    P 
<4>    X    n    p    c 
<3>    X    -    X    C 
<2>    X    X    X    - 
<1>    X    X    X    p 

      <a>  <b>  <c>  <d> 

=12 d6 d5
# call move(): move : 11-15 
------------Black-------------
<8>    X    -    -    - 
<7>    X    X    n    g 
<6>    X    -    X    - 
<5>    X    m    -    p 
<4>    X    n    p    c 
<3>    X    -    X    C 
<2>    X    X    X    - 
<1>    X    X    X    p 

      <a>  <b>  <c>  <d> 

=10
=16
# call move(): move : 23-15 
------------Black-------------
<8>    X    -    -    - 
<7>    X    X    n    g 
<6>    X    -    X    - 
<5>    X    m    -    C 
<4>    X    n    p    c 
<3>    X    -    X    - 
<2>    X    X    X    - 
<1>    X    X    X    p 

      <a>  <b>  <c>  <d> 

=10
=16
My result: 
--------------------------
NegaScout: 114251.619429 (node: 1334277)
(30) -> (30)
< X > -> < X >
move:c1-c1
--------------------------
------------Black-------------
<8>    X    -    -    - 
<7>    X    X    n    g 
<6>    X    -    X    - 
<5>    X    m    -    C 
<4>    X    n    p    c 
<3>    X    -    X    - 
<2>    X    X    X    - 
<1>    X    X    X    p 

      <a>  <b>  <c>  <d> 

=12 c1 c1
# call flip(): flip(30,30) = 5
------------Black-------------
<8>    X    -    -    - 
<7>    X    X    n    g 
<6>    X    -    X    - 
<5>    X    m    -    C 
<4>    X    n    p    c 
<3>    X    -    X    - 
<2>    X    X    X    - 
<1>    X    X    N    p 

      <a>  <b>  <c>  <d> 

=11
=16
# call move(): move : 15-31 
------------Black-------------
<8>    X    -    -    - 
<7>    X    X    n    g 
<6>    X    -    X    - 
<5>    X    m    -    - 
<4>    X    n    p    c 
<3>    X    -    X    - 
<2>    X    X    X    - 
<1>    X    X    N    C 

      <a>  <b>  <c>  <d> 

=10
=16
My result: 
--------------------------
NegaScout: 104124.849286 (node: 1316294)
(16) -> (16)
< X > -> < X >
move:a4-a4
