INITIAL
* 11:48am Jan 3, 2022
* ai vs chan
* 1 2 2 2 2 2 5 1 2 2 2 2 2 5
* X X X X
* X X X X
* X X X X
* X X X X
* X X X X
* X X X X
* X X X X
* X X X X
* first 1
* time 900
* 1. d1(g) b1(R)
* 2. b3(n) d3(p)
* 3. d4(r) d6(p)
* 4. d5(c) c5(N)
* 5. d7(P) d7-d6
* 6. c3(P) c3-d3
* 7. d5-d3 c5-d5
* 8. d4-d5 b2(p)
* 9. c1(N) b1-b2
* 10. d1-c1 a2(P)
* 11. c1-b1 a1(M)
* 12. b1-a1 b2-b3
* 13. d5-d6 a2-b2
* 14. d8(K) c2(G)
* 15. d3-d8 c2-c1
* 16. a5(c) a4(p)
* 17. c6(P) b6(G)
* 18. a8(C) c8(m)
* 19. b8(g) a8-c8
* 20. b7(P) a7(R)
* 21. b8-c8 b4(k)
* 22. a5-a7 c6-c5
* 23. b5(C) b6-c6
* 24. a6(r) c6-d6
* 25. a1-a2 b3-c3
* 26. a7-a8 b2-b3
* 27. b4-b5 c5-b5
* 28. a3(m) c4(n)
* 29. c4-c5 b3-b4
* 30. c5-b5 b4-c4
* 31. b5-c5 d6-d7
* 32. a3-b3 c1-c2
* 33. a2-a3 d7-d6
* 34. a4-b4 d6-d5
* 35. a3-a2 d5-c5
* 36. b4-c4 c3-c4
* 37. b3-b4 c4-d4
* 38. d8-d7 c5-b5
* 39. b4-a4 b5-b6
* 40. a6-a7 d2(M)
* 41. a8-b8 b6-c6
* 42. a4-b4 b7-b6
* 43. c7(p) d2-d3
* 44. b4-c4 c6-c5
* 45. a2-b2 c2-b2
* 46. b8-b2 c5-c4
* 47. b2-c2 c4-c3
* 48. c2-c1 d4-c4
* 49. c7-b7 b6-b7
* 50. d7-d8 b7-b6
* 51. a7-a6 b6-b5
* 52. a6-a5 c4-b4
* 53. c1-d1 d3-d2
* 54. d1-c1 c3-c2
* 55. c1-b1 c2-c1
* 56. b1-b2 d2-c2
* 57. b2-a2 c2-b2
* 58. a2-a1 b2-a2
* 59. a5-b5 b4-b5
* 60. a1-b1 c1-b1
* 61. c8-c7 a2-a3
* 62. c7-c6 b5-b4
* 63. d8-c8 b1-b2
* 64. c8-d8 b4-b5
* 65. c6-b6 b5-c5
* 66. b6-a6 a3-a4
* 67. a6-a5 a4-b4
* 68. a5-b5 b4-c4
* 69. b5-c5 c4-d4
* 70. c5-b5 d4-d3
* 71. b5-a5 d3-d4
* 72. a5-a4 b2-b3
* 73. d8-d7 d4-d5
* 74. a4-a5 d5-d6
* 75. d7-c7 d6-d7
* 76. c7-c6 d7-d6
* 77. c6-c5 d6-d5
* 78. c5-c4 d5-c5
* 79. c4-d4 c5-c4
* 80. d4-d3 b3-c3
* 81. d3-d2 c3-c2
* 82. d2-d1 c2-c1
* 83. d1-d2 c1-c2
* 84. d2-d3 c4-d4
* 85. a5-a4 d4-d3
* 86. a4-a3 c2-b2
* 87. a3-a4 b2-b3
* 88. a4-a5 b3-b4
* 89. a5-a6 b4-b5
* 90. a6-a7 b5-b6
* 91. a7-a8 b6-b7
* 92. a8-a7 b7-a7
* NoMove chan Wins 0.000000,1.000000
* Comment 0 0
0. 1641181704075
1. 1641181704075
2. 1641181704451
3. 1641181715557
4. 1641181717545
5. 1641181726682
6. 1641181730103
7. 1641181737563
8. 1641181743931
9. 1641181750413
10. 1641181760329
11. 1641181766847
12. 1641181776460
13. 1641181782747
14. 1641181791032
15. 1641181796993
16. 1641181801953
17. 1641181806810
18. 1641181812892
19. 1641181816785
20. 1641181821136
21. 1641181824497
22. 1641181828757
23. 1641181831889
24. 1641181835354
25. 1641181838166
26. 1641181840168
27. 1641181842589
28. 1641181845185
29. 1641181846766
30. 1641181848665
31. 1641181850143
32. 1641181852497
33. 1641181853313
34. 1641181855621
35. 1641181856066
36. 1641181857522
37. 1641181857814
38. 1641181859056
39. 1641181859265
40. 1641181859877
41. 1641181859935
42. 1641181860141
43. 1641181860169
44. 1641181860268
45. 1641181860337
46. 1641181860437
47. 1641181860456
48. 1641181860515
49. 1641181860527
50. 1641181860558
51. 1641181860621
52. 1641181860705
53. 1641181860717
54. 1641181860754
55. 1641181860765
56. 1641181860779
57. 1641181860853
58. 1641181860901
59. 1641181860909
60. 1641181860918
61. 1641181860924
62. 1641181860969
63. 1641181861017
64. 1641181861069
65. 1641181861077
66. 1641181861087
67. 1641181861094
68. 1641181861141
69. 1641181861189
70. 1641181861245
71. 1641181861253
72. 1641181861264
73. 1641181861271
74. 1641181861312
75. 1641181861361
76. 1641181861413
77. 1641181861422
78. 1641181861431
79. 1641181861439
80. 1641181861480
81. 1641181861533
82. 1641181861585
83. 1641181861592
84. 1641181861601
85. 1641181861609
86. 1641181861651
87. 1641181861697
88. 1641181861749
89. 1641181861758
90. 1641181861775
91. 1641181861784
92. 1641181861824
93. 1641181861873
94. 1641181861921
95. 1641181861927
96. 1641181861933
97. 1641181861939
98. 1641181861980
99. 1641181862029
100. 1641181862077
101. 1641181862083
102. 1641181862089
103. 1641181862095
104. 1641181862139
105. 1641181862185
106. 1641181862237
107. 1641181862244
108. 1641181862256
109. 1641181862264
110. 1641181862303
111. 1641181862353
112. 1641181862401
113. 1641181862408
114. 1641181862414
115. 1641181862422
116. 1641181862464
117. 1641181862513
118. 1641181862561
119. 1641181862567
120. 1641181862577
121. 1641181862582
122. 1641181862623
123. 1641181862673
124. 1641181862721
125. 1641181862727
126. 1641181862734
127. 1641181862747
128. 1641181862784
129. 1641181862837
130. 1641181862889
131. 1641181862896
132. 1641181862904
133. 1641181862911
134. 1641181862952
135. 1641181863001
136. 1641181863049
137. 1641181863057
138. 1641181863069
139. 1641181863077
140. 1641181863116
141. 1641181863165
142. 1641181863217
143. 1641181863224
144. 1641181863242
145. 1641181863248
146. 1641181863294
147. 1641181863341
148. 1641181863393
149. 1641181863401
150. 1641181863408
151. 1641181863416
152. 1641181863456
153. 1641181863505
154. 1641181863553
155. 1641181863561
156. 1641181863570
157. 1641181863577
158. 1641181863620
159. 1641181863673
160. 1641181863721
161. 1641181863729
162. 1641181863737
163. 1641181863748
164. 1641181863785
165. 1641181863837
166. 1641181863889
167. 1641181863899
168. 1641181863908
169. 1641181863917
170. 1641181863957
171. 1641181864005
172. 1641181864057
173. 1641181864066
174. 1641181864082
175. 1641181864091
176. 1641181864133
177. 1641181864181
178. 1641181864229
179. 1641181864259
180. 1641181864271
181. 1641181864281
182. 1641181864321
183. 1641181864377
184. 1641181864429

# 17 32 52 82 102 132 152 182 202 232 252 282 302 332 352 382 402 432 452 482 502 532 552 582 602 632 652 682 702 732 752 782 802 832 852 882 902 932 952 982 1002 1032 1052 1082 1102 1132 1152 1182 1202 1232 1252 1282 1302 1332 1352 1382 1402 1432 1452 1482 1502 1532 1552 1582 1602 1632 1652 1682 1702 1732 1752 1782 1802 1832 1852 1882 1902 1932 1952 1982 2002 2032 2052 2082 2102 2132 2152 2182 2202 2232 2252 2282 2302 2332 2352 2382 2402 2432 2452 2482 2502 2532 2552 2582 2602 2632 2652 2682 2702 2732 2752 2782 2802 2832 2852 2882 2902 2932 2952 2982 3002 3032 3052 3082 3102 3132 3152 3182 3202 3232 3252 3282 3302 3332 3352 3382 3402 3432 3452 3482 3502 3532 3552 3582 3602 3632 3652 3682 3702 3732 3752 3782 3802 3832 3852 3882 3902 3932 3952 3982 4002 4032 4052 4082 4102 4132 4152 4182 4202 4232 4252 4282 4302 4332 4352 4382 4402 4432 4452 4482 4502 4532 4552 4582 4602 #
=1 MyAI
=2 1.0.0
------------Red-------------
<8>    X    X    X    X 
<7>    X    X    X    X 
<6>    X    X    X    X 
<5>    X    X    X    X 
<4>    X    X    X    X 
<3>    X    X    X    X 
<2>    X    X    X    X 
<1>    X    X    X    X 

      <a>  <b>  <c>  <d> 

=7
=15
=14
# call flip(): flip(31,31) = 10
------------Red-------------
<8>    X    X    X    X 
<7>    X    X    X    X 
<6>    X    X    X    X 
<5>    X    X    X    X 
<4>    X    X    X    X 
<3>    X    X    X    X 
<2>    X    X    X    X 
<1>    X    X    X    g 

      <a>  <b>  <c>  <d> 

=11
=16
My result: 
--------------------------
NegaScout: 548.561773 (node: 423927)
(29) -> (29)
< X > -> < X >
move:b1-b1
--------------------------
------------Red-------------
<8>    X    X    X    X 
<7>    X    X    X    X 
<6>    X    X    X    X 
<5>    X    X    X    X 
<4>    X    X    X    X 
<3>    X    X    X    X 
<2>    X    X    X    X 
<1>    X    X    X    g 

      <a>  <b>  <c>  <d> 

=12 b1 b1
# call flip(): flip(29,29) = 4
------------Red-------------
<8>    X    X    X    X 
<7>    X    X    X    X 
<6>    X    X    X    X 
<5>    X    X    X    X 
<4>    X    X    X    X 
<3>    X    X    X    X 
<2>    X    X    X    X 
<1>    X    R    X    g 

      <a>  <b>  <c>  <d> 

=11
=16
# call flip(): flip(21,21) = 13
------------Red-------------
<8>    X    X    X    X 
<7>    X    X    X    X 
<6>    X    X    X    X 
<5>    X    X    X    X 
<4>    X    X    X    X 
<3>    X    n    X    X 
<2>    X    X    X    X 
<1>    X    R    X    g 

      <a>  <b>  <c>  <d> 

=11
=16
My result: 
--------------------------
NegaScout: 581.731467 (node: 2323590)
(23) -> (23)
< X > -> < X >
move:d3-d3
--------------------------
------------Red-------------
<8>    X    X    X    X 
<7>    X    X    X    X 
<6>    X    X    X    X 
<5>    X    X    X    X 
<4>    X    X    X    X 
<3>    X    n    X    X 
<2>    X    X    X    X 
<1>    X    R    X    g 

      <a>  <b>  <c>  <d> 

=12 d3 d3
# call flip(): flip(23,23) = 15
------------Red-------------
<8>    X    X    X    X 
<7>    X    X    X    X 
<6>    X    X    X    X 
<5>    X    X    X    X 
<4>    X    X    X    X 
<3>    X    n    X    p 
<2>    X    X    X    X 
<1>    X    R    X    g 

      <a>  <b>  <c>  <d> 

=11
=16
# call flip(): flip(19,19) = 12
------------Red-------------
<8>    X    X    X    X 
<7>    X    X    X    X 
<6>    X    X    X    X 
<5>    X    X    X    X 
<4>    X    X    X    r 
<3>    X    n    X    p 
<2>    X    X    X    X 
<1>    X    R    X    g 

      <a>  <b>  <c>  <d> 

=11
=16
My result: 
--------------------------
NegaScout: 49.304953 (node: 3717093)
(11) -> (11)
< X > -> < X >
move:d6-d6
--------------------------
------------Red-------------
<8>    X    X    X    X 
<7>    X    X    X    X 
<6>    X    X    X    X 
<5>    X    X    X    X 
<4>    X    X    X    r 
<3>    X    n    X    p 
<2>    X    X    X    X 
<1>    X    R    X    g 

      <a>  <b>  <c>  <d> 

=12 d6 d6
# call flip(): flip(11,11) = 15
------------Red-------------
<8>    X    X    X    X 
<7>    X    X    X    X 
<6>    X    X    X    p 
<5>    X    X    X    X 
<4>    X    X    X    r 
<3>    X    n    X    p 
<2>    X    X    X    X 
<1>    X    R    X    g 

      <a>  <b>  <c>  <d> 

=11
=16
# call flip(): flip(15,15) = 14
------------Red-------------
<8>    X    X    X    X 
<7>    X    X    X    X 
<6>    X    X    X    p 
<5>    X    X    X    c 
<4>    X    X    X    r 
<3>    X    n    X    p 
<2>    X    X    X    X 
<1>    X    R    X    g 

      <a>  <b>  <c>  <d> 

=11
=16
My result: 
--------------------------
NegaScout: 80.952674 (node: 6371630)
(14) -> (14)
< X > -> < X >
move:c5-c5
--------------------------
------------Red-------------
<8>    X    X    X    X 
<7>    X    X    X    X 
<6>    X    X    X    p 
<5>    X    X    X    c 
<4>    X    X    X    r 
<3>    X    n    X    p 
<2>    X    X    X    X 
<1>    X    R    X    g 

      <a>  <b>  <c>  <d> 

=12 c5 c5
# call flip(): flip(14,14) = 5
------------Red-------------
<8>    X    X    X    X 
<7>    X    X    X    X 
<6>    X    X    X    p 
<5>    X    X    N    c 
<4>    X    X    X    r 
<3>    X    n    X    p 
<2>    X    X    X    X 
<1>    X    R    X    g 

      <a>  <b>  <c>  <d> 

=11
=16
# call flip(): flip(7,7) = 7
------------Red-------------
<8>    X    X    X    X 
<7>    X    X    X    P 
<6>    X    X    X    p 
<5>    X    X    N    c 
<4>    X    X    X    r 
<3>    X    n    X    p 
<2>    X    X    X    X 
<1>    X    R    X    g 

      <a>  <b>  <c>  <d> 

=11
=16
My result: 
--------------------------
NegaScout: 820.596462 (node: 11762076)
(7) -> (11)
< P > -> < p >
move:d7-d6
--------------------------
------------Red-------------
<8>    X    X    X    X 
<7>    X    X    X    P 
<6>    X    X    X    p 
<5>    X    X    N    c 
<4>    X    X    X    r 
<3>    X    n    X    p 
<2>    X    X    X    X 
<1>    X    R    X    g 

      <a>  <b>  <c>  <d> 

=12 d7 d6
# call move(): move : 7-11 
------------Red-------------
<8>    X    X    X    X 
<7>    X    X    X    - 
<6>    X    X    X    P 
<5>    X    X    N    c 
<4>    X    X    X    r 
<3>    X    n    X    p 
<2>    X    X    X    X 
<1>    X    R    X    g 

      <a>  <b>  <c>  <d> 

=10
=16
# call flip(): flip(22,22) = 7
------------Red-------------
<8>    X    X    X    X 
<7>    X    X    X    - 
<6>    X    X    X    P 
<5>    X    X    N    c 
<4>    X    X    X    r 
<3>    X    n    P    p 
<2>    X    X    X    X 
<1>    X    R    X    g 

      <a>  <b>  <c>  <d> 

=11
=16
My result: 
--------------------------
NegaScout: 1220.049773 (node: 10550901)
(22) -> (23)
< P > -> < p >
move:c3-d3
--------------------------
------------Red-------------
<8>    X    X    X    X 
<7>    X    X    X    - 
<6>    X    X    X    P 
<5>    X    X    N    c 
<4>    X    X    X    r 
<3>    X    n    P    p 
<2>    X    X    X    X 
<1>    X    R    X    g 

      <a>  <b>  <c>  <d> 

=12 c3 d3
# call move(): move : 22-23 
------------Red-------------
<8>    X    X    X    X 
<7>    X    X    X    - 
<6>    X    X    X    P 
<5>    X    X    N    c 
<4>    X    X    X    r 
<3>    X    n    -    P 
<2>    X    X    X    X 
<1>    X    R    X    g 

      <a>  <b>  <c>  <d> 

=10
=16
# call move(): move : 15-23 
------------Red-------------
<8>    X    X    X    X 
<7>    X    X    X    - 
<6>    X    X    X    P 
<5>    X    X    N    - 
<4>    X    X    X    r 
<3>    X    n    -    c 
<2>    X    X    X    X 
<1>    X    R    X    g 

      <a>  <b>  <c>  <d> 

=10
=16
My result: 
--------------------------
NegaScout: 669.513864 (node: 9611383)
(14) -> (15)
< N > -> < - >
move:c5-d5
--------------------------
------------Red-------------
<8>    X    X    X    X 
<7>    X    X    X    - 
<6>    X    X    X    P 
<5>    X    X    N    - 
<4>    X    X    X    r 
<3>    X    n    -    c 
<2>    X    X    X    X 
<1>    X    R    X    g 

      <a>  <b>  <c>  <d> 

=12 c5 d5
# call move(): move : 14-15 
------------Red-------------
<8>    X    X    X    X 
<7>    X    X    X    - 
<6>    X    X    X    P 
<5>    X    X    -    N 
<4>    X    X    X    r 
<3>    X    n    -    c 
<2>    X    X    X    X 
<1>    X    R    X    g 

      <a>  <b>  <c>  <d> 

=10
=16
# call move(): move : 19-15 
------------Red-------------
<8>    X    X    X    X 
<7>    X    X    X    - 
<6>    X    X    X    P 
<5>    X    X    -    r 
<4>    X    X    X    - 
<3>    X    n    -    c 
<2>    X    X    X    X 
<1>    X    R    X    g 

      <a>  <b>  <c>  <d> 

=10
=16
My result: 
--------------------------
NegaScout: -105.706450 (node: 5683954)
(25) -> (25)
< X > -> < X >
move:b2-b2
--------------------------
------------Red-------------
<8>    X    X    X    X 
<7>    X    X    X    - 
<6>    X    X    X    P 
<5>    X    X    -    r 
<4>    X    X    X    - 
<3>    X    n    -    c 
<2>    X    X    X    X 
<1>    X    R    X    g 

      <a>  <b>  <c>  <d> 

=12 b2 b2
# call flip(): flip(25,25) = 15
------------Red-------------
<8>    X    X    X    X 
<7>    X    X    X    - 
<6>    X    X    X    P 
<5>    X    X    -    r 
<4>    X    X    X    - 
<3>    X    n    -    c 
<2>    X    p    X    X 
<1>    X    R    X    g 

      <a>  <b>  <c>  <d> 

=11
=16
# call flip(): flip(30,30) = 5
------------Red-------------
<8>    X    X    X    X 
<7>    X    X    X    - 
<6>    X    X    X    P 
<5>    X    X    -    r 
<4>    X    X    X    - 
<3>    X    n    -    c 
<2>    X    p    X    X 
<1>    X    R    N    g 

      <a>  <b>  <c>  <d> 

=11
=16
My result: 
--------------------------
NegaScout: 965.187500 (node: 5871599)
(29) -> (25)
< R > -> < p >
move:b1-b2
--------------------------
------------Red-------------
<8>    X    X    X    X 
<7>    X    X    X    - 
<6>    X    X    X    P 
<5>    X    X    -    r 
<4>    X    X    X    - 
<3>    X    n    -    c 
<2>    X    p    X    X 
<1>    X    R    N    g 

      <a>  <b>  <c>  <d> 

=12 b1 b2
# call move(): move : 29-25 
------------Red-------------
<8>    X    X    X    X 
<7>    X    X    X    - 
<6>    X    X    X    P 
<5>    X    X    -    r 
<4>    X    X    X    - 
<3>    X    n    -    c 
<2>    X    R    X    X 
<1>    X    -    N    g 

      <a>  <b>  <c>  <d> 

=10
=16
# call move(): move : 31-30 
------------Red-------------
<8>    X    X    X    X 
<7>    X    X    X    - 
<6>    X    X    X    P 
<5>    X    X    -    r 
<4>    X    X    X    - 
<3>    X    n    -    c 
<2>    X    R    X    X 
<1>    X    -    g    - 

      <a>  <b>  <c>  <d> 

=10
=16
My result: 
--------------------------
NegaScout: 1017.142553 (node: 4426710)
(24) -> (24)
< X > -> < X >
move:a2-a2
--------------------------
------------Red-------------
<8>    X    X    X    X 
<7>    X    X    X    - 
<6>    X    X    X    P 
<5>    X    X    -    r 
<4>    X    X    X    - 
<3>    X    n    -    c 
<2>    X    R    X    X 
<1>    X    -    g    - 

      <a>  <b>  <c>  <d> 

=12 a2 a2
# call flip(): flip(24,24) = 7
------------Red-------------
<8>    X    X    X    X 
<7>    X    X    X    - 
<6>    X    X    X    P 
<5>    X    X    -    r 
<4>    X    X    X    - 
<3>    X    n    -    c 
<2>    P    R    X    X 
<1>    X    -    g    - 

      <a>  <b>  <c>  <d> 

=11
=16
# call move(): move : 30-29 
------------Red-------------
<8>    X    X    X    X 
<7>    X    X    X    - 
<6>    X    X    X    P 
<5>    X    X    -    r 
<4>    X    X    X    - 
<3>    X    n    -    c 
<2>    P    R    X    X 
<1>    X    g    -    - 

      <a>  <b>  <c>  <d> 

=10
=16
My result: 
--------------------------
NegaScout: 5053.820000 (node: 4181448)
(28) -> (28)
< X > -> < X >
move:a1-a1
--------------------------
------------Red-------------
<8>    X    X    X    X 
<7>    X    X    X    - 
<6>    X    X    X    P 
<5>    X    X    -    r 
<4>    X    X    X    - 
<3>    X    n    -    c 
<2>    P    R    X    X 
<1>    X    g    -    - 

      <a>  <b>  <c>  <d> 

=12 a1 a1
# call flip(): flip(28,28) = 3
------------Red-------------
<8>    X    X    X    X 
<7>    X    X    X    - 
<6>    X    X    X    P 
<5>    X    X    -    r 
<4>    X    X    X    - 
<3>    X    n    -    c 
<2>    P    R    X    X 
<1>    M    g    -    - 

      <a>  <b>  <c>  <d> 

=11
=16
# call move(): move : 29-28 
------------Red-------------
<8>    X    X    X    X 
<7>    X    X    X    - 
<6>    X    X    X    P 
<5>    X    X    -    r 
<4>    X    X    X    - 
<3>    X    n    -    c 
<2>    P    R    X    X 
<1>    g    -    -    - 

      <a>  <b>  <c>  <d> 

=10
=16
My result: 
--------------------------
NegaScout: -1401.137778 (node: 3357504)
(25) -> (21)
< R > -> < n >
move:b2-b3
--------------------------
------------Red-------------
<8>    X    X    X    X 
<7>    X    X    X    - 
<6>    X    X    X    P 
<5>    X    X    -    r 
<4>    X    X    X    - 
<3>    X    n    -    c 
<2>    P    R    X    X 
<1>    g    -    -    - 

      <a>  <b>  <c>  <d> 

=12 b2 b3
# call move(): move : 25-21 
------------Red-------------
<8>    X    X    X    X 
<7>    X    X    X    - 
<6>    X    X    X    P 
<5>    X    X    -    r 
<4>    X    X    X    - 
<3>    X    R    -    c 
<2>    P    -    X    X 
<1>    g    -    -    - 

      <a>  <b>  <c>  <d> 

=10
=16
# call move(): move : 15-11 
------------Red-------------
<8>    X    X    X    X 
<7>    X    X    X    - 
<6>    X    X    X    r 
<5>    X    X    -    - 
<4>    X    X    X    - 
<3>    X    R    -    c 
<2>    P    -    X    X 
<1>    g    -    -    - 

      <a>  <b>  <c>  <d> 

=10
=16
My result: 
--------------------------
NegaScout: -1405.550000 (node: 2186058)
(24) -> (25)
< P > -> < - >
move:a2-b2
--------------------------
------------Red-------------
<8>    X    X    X    X 
<7>    X    X    X    - 
<6>    X    X    X    r 
<5>    X    X    -    - 
<4>    X    X    X    - 
<3>    X    R    -    c 
<2>    P    -    X    X 
<1>    g    -    -    - 

      <a>  <b>  <c>  <d> 

=12 a2 b2
# call move(): move : 24-25 
------------Red-------------
<8>    X    X    X    X 
<7>    X    X    X    - 
<6>    X    X    X    r 
<5>    X    X    -    - 
<4>    X    X    X    - 
<3>    X    R    -    c 
<2>    -    P    X    X 
<1>    g    -    -    - 

      <a>  <b>  <c>  <d> 

=10
=16
# call flip(): flip(3,3) = 1
------------Red-------------
<8>    X    X    X    K 
<7>    X    X    X    - 
<6>    X    X    X    r 
<5>    X    X    -    - 
<4>    X    X    X    - 
<3>    X    R    -    c 
<2>    -    P    X    X 
<1>    g    -    -    - 

      <a>  <b>  <c>  <d> 

=11
=16
My result: 
--------------------------
NegaScout: -112330.538493 (node: 2629568)
(26) -> (26)
< X > -> < X >
move:c2-c2
--------------------------
------------Red-------------
<8>    X    X    X    K 
<7>    X    X    X    - 
